# vtk DataFile Version 2.0
field data: pressure, temperature
ASCII
DATASET STRUCTURED_POINT
DIMENSIONS          100         100
ORIGIN      0.4950E-02      0.2475E-02
SPACING      0.9901E-02      0.4950E-02
    -0.1820E+00,      0.1000E+01
    -0.1809E+00,      0.7621E+00
    -0.1792E+00,      0.5361E+00
    -0.1772E+00,      0.3474E+00
    -0.1753E+00,      0.2143E+00
    -0.1735E+00,      0.1363E+00
    -0.1719E+00,      0.9830E-01
    -0.1706E+00,      0.8315E-01
    -0.1695E+00,      0.7862E-01
    -0.1685E+00,      0.7825E-01
    -0.1677E+00,      0.7926E-01
    -0.1669E+00,      0.8065E-01
    -0.1663E+00,      0.8210E-01
    -0.1657E+00,      0.8355E-01
    -0.1651E+00,      0.8496E-01
    -0.1645E+00,      0.8636E-01
    -0.1640E+00,      0.8773E-01
    -0.1634E+00,      0.8908E-01
    -0.1628E+00,      0.9043E-01
    -0.1622E+00,      0.9176E-01
    -0.1616E+00,      0.9309E-01
    -0.1609E+00,      0.9441E-01
    -0.1602E+00,      0.9573E-01
    -0.1595E+00,      0.9704E-01
    -0.1587E+00,      0.9835E-01
    -0.1579E+00,      0.9965E-01
    -0.1570E+00,      0.1010E+00
    -0.1561E+00,      0.1023E+00
    -0.1552E+00,      0.1036E+00
    -0.1542E+00,      0.1048E+00
    -0.1532E+00,      0.1061E+00
    -0.1521E+00,      0.1074E+00
    -0.1510E+00,      0.1087E+00
    -0.1498E+00,      0.1100E+00
    -0.1486E+00,      0.1113E+00
    -0.1474E+00,      0.1126E+00
    -0.1461E+00,      0.1138E+00
    -0.1448E+00,      0.1151E+00
    -0.1434E+00,      0.1164E+00
    -0.1420E+00,      0.1176E+00
    -0.1405E+00,      0.1189E+00
    -0.1390E+00,      0.1201E+00
    -0.1375E+00,      0.1214E+00
    -0.1359E+00,      0.1226E+00
    -0.1343E+00,      0.1238E+00
    -0.1326E+00,      0.1250E+00
    -0.1309E+00,      0.1262E+00
    -0.1291E+00,      0.1274E+00
    -0.1273E+00,      0.1286E+00
    -0.1255E+00,      0.1297E+00
    -0.1236E+00,      0.1308E+00
    -0.1216E+00,      0.1319E+00
    -0.1196E+00,      0.1330E+00
    -0.1176E+00,      0.1341E+00
    -0.1155E+00,      0.1351E+00
    -0.1134E+00,      0.1361E+00
    -0.1112E+00,      0.1371E+00
    -0.1090E+00,      0.1380E+00
    -0.1067E+00,      0.1390E+00
    -0.1044E+00,      0.1398E+00
    -0.1021E+00,      0.1406E+00
    -0.9966E-01,      0.1414E+00
    -0.9720E-01,      0.1422E+00
    -0.9470E-01,      0.1428E+00
    -0.9215E-01,      0.1435E+00
    -0.8954E-01,      0.1440E+00
    -0.8690E-01,      0.1445E+00
    -0.8420E-01,      0.1449E+00
    -0.8146E-01,      0.1453E+00
    -0.7866E-01,      0.1455E+00
    -0.7583E-01,      0.1457E+00
    -0.7294E-01,      0.1458E+00
    -0.7001E-01,      0.1457E+00
    -0.6704E-01,      0.1455E+00
    -0.6402E-01,      0.1452E+00
    -0.6097E-01,      0.1448E+00
    -0.5788E-01,      0.1441E+00
    -0.5475E-01,      0.1433E+00
    -0.5159E-01,      0.1423E+00
    -0.4841E-01,      0.1410E+00
    -0.4521E-01,      0.1395E+00
    -0.4199E-01,      0.1377E+00
    -0.3877E-01,      0.1355E+00
    -0.3555E-01,      0.1330E+00
    -0.3235E-01,      0.1300E+00
    -0.2917E-01,      0.1266E+00
    -0.2603E-01,      0.1226E+00
    -0.2295E-01,      0.1180E+00
    -0.1996E-01,      0.1127E+00
    -0.1706E-01,      0.1067E+00
    -0.1429E-01,      0.9979E-01
    -0.1168E-01,      0.9200E-01
    -0.9247E-02,      0.8325E-01
    -0.7032E-02,      0.7352E-01
    -0.5064E-02,      0.6284E-01
    -0.3377E-02,      0.5127E-01
    -0.1999E-02,      0.3895E-01
    -0.9608E-03,      0.2610E-01
    -0.2858E-03,      0.1300E-01
     0.0000E+00,      0.0000E+00
    -0.1819E+00,      0.1000E+01
    -0.1807E+00,      0.7623E+00
    -0.1790E+00,      0.5364E+00
    -0.1770E+00,      0.3477E+00
    -0.1751E+00,      0.2147E+00
    -0.1733E+00,      0.1366E+00
    -0.1718E+00,      0.9854E-01
    -0.1704E+00,      0.8336E-01
    -0.1693E+00,      0.7882E-01
    -0.1684E+00,      0.7845E-01
    -0.1676E+00,      0.7946E-01
    -0.1668E+00,      0.8086E-01
    -0.1662E+00,      0.8232E-01
    -0.1656E+00,      0.8377E-01
    -0.1650E+00,      0.8519E-01
    -0.1645E+00,      0.8659E-01
    -0.1639E+00,      0.8796E-01
    -0.1634E+00,      0.8933E-01
    -0.1628E+00,      0.9068E-01
    -0.1622E+00,      0.9202E-01
    -0.1615E+00,      0.9335E-01
    -0.1609E+00,      0.9467E-01
    -0.1602E+00,      0.9599E-01
    -0.1594E+00,      0.9731E-01
    -0.1586E+00,      0.9862E-01
    -0.1578E+00,      0.9993E-01
    -0.1570E+00,      0.1012E+00
    -0.1561E+00,      0.1025E+00
    -0.1551E+00,      0.1038E+00
    -0.1541E+00,      0.1051E+00
    -0.1531E+00,      0.1064E+00
    -0.1520E+00,      0.1077E+00
    -0.1509E+00,      0.1090E+00
    -0.1498E+00,      0.1103E+00
    -0.1486E+00,      0.1116E+00
    -0.1473E+00,      0.1129E+00
    -0.1460E+00,      0.1142E+00
    -0.1447E+00,      0.1154E+00
    -0.1433E+00,      0.1167E+00
    -0.1419E+00,      0.1180E+00
    -0.1404E+00,      0.1192E+00
    -0.1389E+00,      0.1205E+00
    -0.1374E+00,      0.1217E+00
    -0.1358E+00,      0.1229E+00
    -0.1342E+00,      0.1242E+00
    -0.1325E+00,      0.1254E+00
    -0.1308E+00,      0.1266E+00
    -0.1290E+00,      0.1277E+00
    -0.1272E+00,      0.1289E+00
    -0.1254E+00,      0.1300E+00
    -0.1235E+00,      0.1312E+00
    -0.1215E+00,      0.1323E+00
    -0.1195E+00,      0.1334E+00
    -0.1175E+00,      0.1344E+00
    -0.1154E+00,      0.1355E+00
    -0.1133E+00,      0.1365E+00
    -0.1111E+00,      0.1374E+00
    -0.1089E+00,      0.1384E+00
    -0.1066E+00,      0.1393E+00
    -0.1043E+00,      0.1401E+00
    -0.1020E+00,      0.1410E+00
    -0.9955E-01,      0.1417E+00
    -0.9710E-01,      0.1425E+00
    -0.9459E-01,      0.1432E+00
    -0.9204E-01,      0.1438E+00
    -0.8944E-01,      0.1443E+00
    -0.8679E-01,      0.1448E+00
    -0.8409E-01,      0.1452E+00
    -0.8135E-01,      0.1456E+00
    -0.7856E-01,      0.1458E+00
    -0.7572E-01,      0.1460E+00
    -0.7283E-01,      0.1460E+00
    -0.6990E-01,      0.1460E+00
    -0.6693E-01,      0.1458E+00
    -0.6392E-01,      0.1455E+00
    -0.6086E-01,      0.1450E+00
    -0.5777E-01,      0.1444E+00
    -0.5464E-01,      0.1436E+00
    -0.5149E-01,      0.1425E+00
    -0.4831E-01,      0.1413E+00
    -0.4510E-01,      0.1397E+00
    -0.4189E-01,      0.1379E+00
    -0.3866E-01,      0.1358E+00
    -0.3544E-01,      0.1332E+00
    -0.3224E-01,      0.1303E+00
    -0.2906E-01,      0.1268E+00
    -0.2592E-01,      0.1228E+00
    -0.2284E-01,      0.1182E+00
    -0.1984E-01,      0.1129E+00
    -0.1694E-01,      0.1069E+00
    -0.1417E-01,      0.9996E-01
    -0.1155E-01,      0.9216E-01
    -0.9113E-02,      0.8340E-01
    -0.6892E-02,      0.7365E-01
    -0.4919E-02,      0.6295E-01
    -0.3226E-02,      0.5136E-01
    -0.1844E-02,      0.3902E-01
    -0.7984E-03,      0.2615E-01
    -0.1105E-03,      0.1303E-01
     0.2138E-03,      0.0000E+00
    -0.1815E+00,      0.1000E+01
    -0.1804E+00,      0.7623E+00
    -0.1786E+00,      0.5365E+00
    -0.1767E+00,      0.3480E+00
    -0.1748E+00,      0.2149E+00
    -0.1730E+00,      0.1369E+00
    -0.1715E+00,      0.9880E-01
    -0.1702E+00,      0.8359E-01
    -0.1691E+00,      0.7905E-01
    -0.1682E+00,      0.7868E-01
    -0.1674E+00,      0.7971E-01
    -0.1667E+00,      0.8111E-01
    -0.1661E+00,      0.8259E-01
    -0.1655E+00,      0.8405E-01
    -0.1649E+00,      0.8548E-01
    -0.1644E+00,      0.8689E-01
    -0.1638E+00,      0.8828E-01
    -0.1632E+00,      0.8965E-01
    -0.1626E+00,      0.9101E-01
    -0.1620E+00,      0.9237E-01
    -0.1614E+00,      0.9371E-01
    -0.1607E+00,      0.9505E-01
    -0.1600E+00,      0.9638E-01
    -0.1593E+00,      0.9770E-01
    -0.1585E+00,      0.9903E-01
    -0.1577E+00,      0.1003E+00
    -0.1568E+00,      0.1017E+00
    -0.1559E+00,      0.1030E+00
    -0.1550E+00,      0.1043E+00
    -0.1540E+00,      0.1056E+00
    -0.1530E+00,      0.1069E+00
    -0.1519E+00,      0.1082E+00
    -0.1508E+00,      0.1095E+00
    -0.1496E+00,      0.1108E+00
    -0.1484E+00,      0.1121E+00
    -0.1472E+00,      0.1134E+00
    -0.1459E+00,      0.1147E+00
    -0.1445E+00,      0.1160E+00
    -0.1432E+00,      0.1173E+00
    -0.1417E+00,      0.1185E+00
    -0.1403E+00,      0.1198E+00
    -0.1388E+00,      0.1211E+00
    -0.1372E+00,      0.1223E+00
    -0.1356E+00,      0.1236E+00
    -0.1340E+00,      0.1248E+00
    -0.1323E+00,      0.1260E+00
    -0.1306E+00,      0.1272E+00
    -0.1288E+00,      0.1284E+00
    -0.1270E+00,      0.1296E+00
    -0.1252E+00,      0.1307E+00
    -0.1233E+00,      0.1319E+00
    -0.1213E+00,      0.1330E+00
    -0.1193E+00,      0.1341E+00
    -0.1173E+00,      0.1352E+00
    -0.1152E+00,      0.1362E+00
    -0.1131E+00,      0.1372E+00
    -0.1109E+00,      0.1382E+00
    -0.1087E+00,      0.1392E+00
    -0.1064E+00,      0.1401E+00
    -0.1041E+00,      0.1410E+00
    -0.1018E+00,      0.1418E+00
    -0.9934E-01,      0.1426E+00
    -0.9689E-01,      0.1433E+00
    -0.9438E-01,      0.1440E+00
    -0.9183E-01,      0.1447E+00
    -0.8923E-01,      0.1453E+00
    -0.8658E-01,      0.1458E+00
    -0.8388E-01,      0.1462E+00
    -0.8114E-01,      0.1466E+00
    -0.7835E-01,      0.1468E+00
    -0.7551E-01,      0.1470E+00
    -0.7262E-01,      0.1471E+00
    -0.6969E-01,      0.1471E+00
    -0.6672E-01,      0.1469E+00
    -0.6371E-01,      0.1467E+00
    -0.6066E-01,      0.1462E+00
    -0.5756E-01,      0.1456E+00
    -0.5444E-01,      0.1448E+00
    -0.5129E-01,      0.1439E+00
    -0.4810E-01,      0.1426E+00
    -0.4490E-01,      0.1412E+00
    -0.4169E-01,      0.1394E+00
    -0.3847E-01,      0.1373E+00
    -0.3525E-01,      0.1348E+00
    -0.3204E-01,      0.1319E+00
    -0.2887E-01,      0.1286E+00
    -0.2573E-01,      0.1246E+00
    -0.2265E-01,      0.1201E+00
    -0.1965E-01,      0.1148E+00
    -0.1675E-01,      0.1088E+00
    -0.1398E-01,      0.1019E+00
    -0.1136E-01,      0.9409E-01
    -0.8924E-02,      0.8528E-01
    -0.6702E-02,      0.7543E-01
    -0.4728E-02,      0.6457E-01
    -0.3033E-02,      0.5276E-01
    -0.1648E-02,      0.4013E-01
    -0.5979E-03,      0.2692E-01
     0.9948E-04,      0.1342E-01
     0.4410E-03,      0.0000E+00
    -0.1810E+00,      0.1000E+01
    -0.1799E+00,      0.7623E+00
    -0.1782E+00,      0.5366E+00
    -0.1763E+00,      0.3482E+00
    -0.1744E+00,      0.2153E+00
    -0.1727E+00,      0.1372E+00
    -0.1712E+00,      0.9909E-01
    -0.1700E+00,      0.8386E-01
    -0.1689E+00,      0.7931E-01
    -0.1680E+00,      0.7895E-01
    -0.1672E+00,      0.7999E-01
    -0.1665E+00,      0.8141E-01
    -0.1659E+00,      0.8291E-01
    -0.1653E+00,      0.8439E-01
    -0.1647E+00,      0.8584E-01
    -0.1642E+00,      0.8727E-01
    -0.1636E+00,      0.8868E-01
    -0.1631E+00,      0.9007E-01
    -0.1625E+00,      0.9145E-01
    -0.1619E+00,      0.9282E-01
    -0.1612E+00,      0.9418E-01
    -0.1606E+00,      0.9553E-01
    -0.1598E+00,      0.9688E-01
    -0.1591E+00,      0.9823E-01
    -0.1583E+00,      0.9957E-01
    -0.1575E+00,      0.1009E+00
    -0.1566E+00,      0.1022E+00
    -0.1557E+00,      0.1036E+00
    -0.1548E+00,      0.1049E+00
    -0.1538E+00,      0.1062E+00
    -0.1527E+00,      0.1076E+00
    -0.1517E+00,      0.1089E+00
    -0.1505E+00,      0.1102E+00
    -0.1494E+00,      0.1115E+00
    -0.1482E+00,      0.1129E+00
    -0.1469E+00,      0.1142E+00
    -0.1456E+00,      0.1155E+00
    -0.1443E+00,      0.1168E+00
    -0.1429E+00,      0.1181E+00
    -0.1415E+00,      0.1194E+00
    -0.1400E+00,      0.1207E+00
    -0.1385E+00,      0.1219E+00
    -0.1370E+00,      0.1232E+00
    -0.1354E+00,      0.1245E+00
    -0.1337E+00,      0.1257E+00
    -0.1321E+00,      0.1270E+00
    -0.1303E+00,      0.1282E+00
    -0.1286E+00,      0.1294E+00
    -0.1268E+00,      0.1306E+00
    -0.1249E+00,      0.1318E+00
    -0.1230E+00,      0.1329E+00
    -0.1210E+00,      0.1341E+00
    -0.1191E+00,      0.1352E+00
    -0.1170E+00,      0.1363E+00
    -0.1149E+00,      0.1374E+00
    -0.1128E+00,      0.1384E+00
    -0.1106E+00,      0.1394E+00
    -0.1084E+00,      0.1404E+00
    -0.1061E+00,      0.1414E+00
    -0.1038E+00,      0.1423E+00
    -0.1015E+00,      0.1432E+00
    -0.9905E-01,      0.1440E+00
    -0.9659E-01,      0.1448E+00
    -0.9408E-01,      0.1455E+00
    -0.9153E-01,      0.1462E+00
    -0.8893E-01,      0.1468E+00
    -0.8628E-01,      0.1473E+00
    -0.8358E-01,      0.1478E+00
    -0.8084E-01,      0.1482E+00
    -0.7805E-01,      0.1486E+00
    -0.7521E-01,      0.1488E+00
    -0.7233E-01,      0.1489E+00
    -0.6940E-01,      0.1490E+00
    -0.6643E-01,      0.1489E+00
    -0.6342E-01,      0.1487E+00
    -0.6036E-01,      0.1483E+00
    -0.5728E-01,      0.1478E+00
    -0.5415E-01,      0.1471E+00
    -0.5100E-01,      0.1462E+00
    -0.4782E-01,      0.1451E+00
    -0.4463E-01,      0.1438E+00
    -0.4141E-01,      0.1421E+00
    -0.3820E-01,      0.1401E+00
    -0.3498E-01,      0.1378E+00
    -0.3178E-01,      0.1350E+00
    -0.2861E-01,      0.1318E+00
    -0.2547E-01,      0.1279E+00
    -0.2240E-01,      0.1235E+00
    -0.1940E-01,      0.1184E+00
    -0.1651E-01,      0.1124E+00
    -0.1374E-01,      0.1056E+00
    -0.1112E-01,      0.9771E-01
    -0.8686E-02,      0.8880E-01
    -0.6465E-02,      0.7877E-01
    -0.4492E-02,      0.6761E-01
    -0.2798E-02,      0.5538E-01
    -0.1412E-02,      0.4222E-01
    -0.3593E-03,      0.2837E-01
     0.3438E-03,      0.1416E-01
     0.6935E-03,      0.0000E+00
    -0.1803E+00,      0.1000E+01
    -0.1792E+00,      0.7624E+00
    -0.1776E+00,      0.5368E+00
    -0.1757E+00,      0.3486E+00
    -0.1739E+00,      0.2157E+00
    -0.1723E+00,      0.1376E+00
    -0.1709E+00,      0.9944E-01
    -0.1696E+00,      0.8417E-01
    -0.1686E+00,      0.7961E-01
    -0.1677E+00,      0.7926E-01
    -0.1670E+00,      0.8032E-01
    -0.1663E+00,      0.8177E-01
    -0.1657E+00,      0.8329E-01
    -0.1651E+00,      0.8479E-01
    -0.1645E+00,      0.8627E-01
    -0.1640E+00,      0.8773E-01
    -0.1634E+00,      0.8916E-01
    -0.1629E+00,      0.9058E-01
    -0.1623E+00,      0.9198E-01
    -0.1617E+00,      0.9337E-01
    -0.1610E+00,      0.9476E-01
    -0.1603E+00,      0.9614E-01
    -0.1596E+00,      0.9752E-01
    -0.1589E+00,      0.9889E-01
    -0.1581E+00,      0.1003E+00
    -0.1573E+00,      0.1016E+00
    -0.1564E+00,      0.1030E+00
    -0.1555E+00,      0.1043E+00
    -0.1545E+00,      0.1057E+00
    -0.1535E+00,      0.1071E+00
    -0.1525E+00,      0.1084E+00
    -0.1514E+00,      0.1098E+00
    -0.1503E+00,      0.1111E+00
    -0.1491E+00,      0.1125E+00
    -0.1479E+00,      0.1138E+00
    -0.1466E+00,      0.1151E+00
    -0.1453E+00,      0.1165E+00
    -0.1440E+00,      0.1178E+00
    -0.1426E+00,      0.1191E+00
    -0.1412E+00,      0.1205E+00
    -0.1397E+00,      0.1218E+00
    -0.1382E+00,      0.1231E+00
    -0.1367E+00,      0.1244E+00
    -0.1351E+00,      0.1257E+00
    -0.1334E+00,      0.1270E+00
    -0.1317E+00,      0.1282E+00
    -0.1300E+00,      0.1295E+00
    -0.1282E+00,      0.1307E+00
    -0.1264E+00,      0.1320E+00
    -0.1246E+00,      0.1332E+00
    -0.1226E+00,      0.1344E+00
    -0.1207E+00,      0.1356E+00
    -0.1187E+00,      0.1367E+00
    -0.1167E+00,      0.1379E+00
    -0.1146E+00,      0.1390E+00
    -0.1124E+00,      0.1401E+00
    -0.1103E+00,      0.1411E+00
    -0.1080E+00,      0.1421E+00
    -0.1058E+00,      0.1431E+00
    -0.1035E+00,      0.1441E+00
    -0.1011E+00,      0.1450E+00
    -0.9868E-01,      0.1459E+00
    -0.9622E-01,      0.1467E+00
    -0.9371E-01,      0.1475E+00
    -0.9116E-01,      0.1482E+00
    -0.8856E-01,      0.1489E+00
    -0.8591E-01,      0.1495E+00
    -0.8321E-01,      0.1501E+00
    -0.8046E-01,      0.1506E+00
    -0.7767E-01,      0.1510E+00
    -0.7484E-01,      0.1513E+00
    -0.7195E-01,      0.1515E+00
    -0.6903E-01,      0.1517E+00
    -0.6606E-01,      0.1517E+00
    -0.6305E-01,      0.1516E+00
    -0.6000E-01,      0.1513E+00
    -0.5691E-01,      0.1509E+00
    -0.5380E-01,      0.1504E+00
    -0.5065E-01,      0.1496E+00
    -0.4747E-01,      0.1486E+00
    -0.4428E-01,      0.1474E+00
    -0.4107E-01,      0.1459E+00
    -0.3786E-01,      0.1441E+00
    -0.3465E-01,      0.1420E+00
    -0.3146E-01,      0.1394E+00
    -0.2829E-01,      0.1363E+00
    -0.2516E-01,      0.1327E+00
    -0.2209E-01,      0.1284E+00
    -0.1910E-01,      0.1234E+00
    -0.1621E-01,      0.1176E+00
    -0.1345E-01,      0.1108E+00
    -0.1083E-01,      0.1029E+00
    -0.8401E-02,      0.9382E-01
    -0.6184E-02,      0.8351E-01
    -0.4214E-02,      0.7193E-01
    -0.2521E-02,      0.5911E-01
    -0.1136E-02,      0.4519E-01
    -0.8190E-04,      0.3044E-01
     0.6241E-03,      0.1522E-01
     0.9775E-03,      0.0000E+00
    -0.1796E+00,      0.1000E+01
    -0.1785E+00,      0.7625E+00
    -0.1769E+00,      0.5372E+00
    -0.1751E+00,      0.3491E+00
    -0.1734E+00,      0.2163E+00
    -0.1718E+00,      0.1381E+00
    -0.1705E+00,      0.9986E-01
    -0.1693E+00,      0.8452E-01
    -0.1683E+00,      0.7994E-01
    -0.1674E+00,      0.7960E-01
    -0.1667E+00,      0.8069E-01
    -0.1660E+00,      0.8217E-01
    -0.1654E+00,      0.8373E-01
    -0.1648E+00,      0.8526E-01
    -0.1643E+00,      0.8678E-01
    -0.1637E+00,      0.8826E-01
    -0.1632E+00,      0.8973E-01
    -0.1626E+00,      0.9117E-01
    -0.1620E+00,      0.9261E-01
    -0.1614E+00,      0.9404E-01
    -0.1608E+00,      0.9545E-01
    -0.1601E+00,      0.9687E-01
    -0.1594E+00,      0.9827E-01
    -0.1586E+00,      0.9968E-01
    -0.1578E+00,      0.1011E+00
    -0.1570E+00,      0.1025E+00
    -0.1561E+00,      0.1039E+00
    -0.1552E+00,      0.1053E+00
    -0.1542E+00,      0.1067E+00
    -0.1532E+00,      0.1080E+00
    -0.1522E+00,      0.1094E+00
    -0.1511E+00,      0.1108E+00
    -0.1500E+00,      0.1122E+00
    -0.1488E+00,      0.1136E+00
    -0.1476E+00,      0.1150E+00
    -0.1463E+00,      0.1163E+00
    -0.1450E+00,      0.1177E+00
    -0.1437E+00,      0.1191E+00
    -0.1423E+00,      0.1205E+00
    -0.1408E+00,      0.1218E+00
    -0.1394E+00,      0.1232E+00
    -0.1379E+00,      0.1245E+00
    -0.1363E+00,      0.1259E+00
    -0.1347E+00,      0.1272E+00
    -0.1330E+00,      0.1285E+00
    -0.1314E+00,      0.1298E+00
    -0.1296E+00,      0.1311E+00
    -0.1278E+00,      0.1324E+00
    -0.1260E+00,      0.1337E+00
    -0.1242E+00,      0.1349E+00
    -0.1222E+00,      0.1362E+00
    -0.1203E+00,      0.1374E+00
    -0.1183E+00,      0.1386E+00
    -0.1162E+00,      0.1398E+00
    -0.1142E+00,      0.1410E+00
    -0.1120E+00,      0.1421E+00
    -0.1098E+00,      0.1432E+00
    -0.1076E+00,      0.1443E+00
    -0.1053E+00,      0.1453E+00
    -0.1030E+00,      0.1464E+00
    -0.1007E+00,      0.1474E+00
    -0.9825E-01,      0.1483E+00
    -0.9578E-01,      0.1492E+00
    -0.9328E-01,      0.1501E+00
    -0.9072E-01,      0.1509E+00
    -0.8812E-01,      0.1516E+00
    -0.8547E-01,      0.1523E+00
    -0.8277E-01,      0.1530E+00
    -0.8002E-01,      0.1535E+00
    -0.7723E-01,      0.1541E+00
    -0.7440E-01,      0.1545E+00
    -0.7152E-01,      0.1548E+00
    -0.6859E-01,      0.1551E+00
    -0.6563E-01,      0.1552E+00
    -0.6262E-01,      0.1552E+00
    -0.5957E-01,      0.1551E+00
    -0.5649E-01,      0.1549E+00
    -0.5338E-01,      0.1545E+00
    -0.5023E-01,      0.1539E+00
    -0.4706E-01,      0.1531E+00
    -0.4387E-01,      0.1521E+00
    -0.4067E-01,      0.1508E+00
    -0.3747E-01,      0.1492E+00
    -0.3427E-01,      0.1473E+00
    -0.3108E-01,      0.1449E+00
    -0.2792E-01,      0.1421E+00
    -0.2480E-01,      0.1387E+00
    -0.2173E-01,      0.1346E+00
    -0.1875E-01,      0.1298E+00
    -0.1587E-01,      0.1241E+00
    -0.1311E-01,      0.1173E+00
    -0.1050E-01,      0.1094E+00
    -0.8073E-02,      0.1001E+00
    -0.5860E-02,      0.8948E-01
    -0.3893E-02,      0.7736E-01
    -0.2203E-02,      0.6380E-01
    -0.8185E-03,      0.4893E-01
     0.2352E-03,      0.3304E-01
     0.9423E-03,      0.1654E-01
