# vtk DataFile Version 2.0
field data: pressure, temperature
ASCII
DATASET STRUCTURED_POINT
DIMENSIONS          100         100
ORIGIN      0.4950E-02      0.4950E-02
SPACING      0.9901E-02      0.9901E-02
     0.6570E+00,      0.1000E+01
     0.6537E+00,      0.7580E+00
     0.6508E+00,      0.5714E+00
     0.6479E+00,      0.4289E+00
     0.6449E+00,      0.3207E+00
     0.6419E+00,      0.2391E+00
     0.6387E+00,      0.1777E+00
     0.6353E+00,      0.1318E+00
     0.6318E+00,      0.9746E-01
     0.6282E+00,      0.7193E-01
     0.6244E+00,      0.5298E-01
     0.6207E+00,      0.3894E-01
     0.6168E+00,      0.2857E-01
     0.6129E+00,      0.2092E-01
     0.6090E+00,      0.1529E-01
     0.6050E+00,      0.1116E-01
     0.6011E+00,      0.8129E-02
     0.5971E+00,      0.5912E-02
     0.5932E+00,      0.4292E-02
     0.5893E+00,      0.3111E-02
     0.5854E+00,      0.2252E-02
     0.5815E+00,      0.1627E-02
     0.5777E+00,      0.1174E-02
     0.5739E+00,      0.8462E-03
     0.5701E+00,      0.6088E-03
     0.5664E+00,      0.4375E-03
     0.5627E+00,      0.3139E-03
     0.5591E+00,      0.2250E-03
     0.5555E+00,      0.1610E-03
     0.5519E+00,      0.1151E-03
     0.5484E+00,      0.8216E-04
     0.5450E+00,      0.5858E-04
     0.5416E+00,      0.4172E-04
     0.5383E+00,      0.2968E-04
     0.5350E+00,      0.2109E-04
     0.5317E+00,      0.1497E-04
     0.5286E+00,      0.1062E-04
     0.5254E+00,      0.7523E-05
     0.5224E+00,      0.5324E-05
     0.5193E+00,      0.3764E-05
     0.5164E+00,      0.2659E-05
     0.5135E+00,      0.1877E-05
     0.5106E+00,      0.1324E-05
     0.5079E+00,      0.9326E-06
     0.5051E+00,      0.6566E-06
     0.5025E+00,      0.4619E-06
     0.4998E+00,      0.3247E-06
     0.4973E+00,      0.2281E-06
     0.4948E+00,      0.1601E-06
     0.4923E+00,      0.1124E-06
     0.4900E+00,      0.7878E-07
     0.4876E+00,      0.5520E-07
     0.4854E+00,      0.3866E-07
     0.4832E+00,      0.2706E-07
     0.4810E+00,      0.1894E-07
     0.4789E+00,      0.1324E-07
     0.4769E+00,      0.9259E-08
     0.4749E+00,      0.6470E-08
     0.4729E+00,      0.4520E-08
     0.4711E+00,      0.3157E-08
     0.4692E+00,      0.2204E-08
     0.4674E+00,      0.1539E-08
     0.4657E+00,      0.1074E-08
     0.4640E+00,      0.7493E-09
     0.4623E+00,      0.5228E-09
     0.4607E+00,      0.3648E-09
     0.4592E+00,      0.2545E-09
     0.4576E+00,      0.1776E-09
     0.4561E+00,      0.1239E-09
     0.4547E+00,      0.8644E-10
     0.4533E+00,      0.6032E-10
     0.4518E+00,      0.4211E-10
     0.4505E+00,      0.2940E-10
     0.4491E+00,      0.2053E-10
     0.4477E+00,      0.1434E-10
     0.4464E+00,      0.1002E-10
     0.4450E+00,      0.7005E-11
     0.4437E+00,      0.4899E-11
     0.4423E+00,      0.3428E-11
     0.4409E+00,      0.2400E-11
     0.4395E+00,      0.1681E-11
     0.4381E+00,      0.1178E-11
     0.4366E+00,      0.8262E-12
     0.4351E+00,      0.5799E-12
     0.4336E+00,      0.4073E-12
     0.4320E+00,      0.2863E-12
     0.4304E+00,      0.2014E-12
     0.4288E+00,      0.1419E-12
     0.4271E+00,      0.9998E-13
     0.4253E+00,      0.7052E-13
     0.4235E+00,      0.4976E-13
     0.4216E+00,      0.3511E-13
     0.4197E+00,      0.2473E-13
     0.4178E+00,      0.1736E-13
     0.4158E+00,      0.1207E-13
     0.4139E+00,      0.8248E-14
     0.4121E+00,      0.5419E-14
     0.4103E+00,      0.3257E-14
     0.4085E+00,      0.1516E-14
     0.4066E+00,      0.0000E+00
     0.6521E+00,      0.1000E+01
     0.6486E+00,      0.7579E+00
     0.6453E+00,      0.5714E+00
     0.6420E+00,      0.4289E+00
     0.6387E+00,      0.3207E+00
     0.6353E+00,      0.2391E+00
     0.6318E+00,      0.1777E+00
     0.6282E+00,      0.1317E+00
     0.6245E+00,      0.9745E-01
     0.6207E+00,      0.7192E-01
     0.6169E+00,      0.5297E-01
     0.6130E+00,      0.3893E-01
     0.6090E+00,      0.2856E-01
     0.6051E+00,      0.2092E-01
     0.6011E+00,      0.1529E-01
     0.5971E+00,      0.1116E-01
     0.5930E+00,      0.8127E-02
     0.5890E+00,      0.5910E-02
     0.5850E+00,      0.4291E-02
     0.5811E+00,      0.3111E-02
     0.5771E+00,      0.2251E-02
     0.5732E+00,      0.1627E-02
     0.5693E+00,      0.1174E-02
     0.5654E+00,      0.8459E-03
     0.5616E+00,      0.6086E-03
     0.5578E+00,      0.4373E-03
     0.5540E+00,      0.3138E-03
     0.5503E+00,      0.2249E-03
     0.5467E+00,      0.1609E-03
     0.5431E+00,      0.1150E-03
     0.5395E+00,      0.8212E-04
     0.5360E+00,      0.5856E-04
     0.5325E+00,      0.4171E-04
     0.5291E+00,      0.2967E-04
     0.5257E+00,      0.2109E-04
     0.5224E+00,      0.1497E-04
     0.5191E+00,      0.1061E-04
     0.5159E+00,      0.7519E-05
     0.5128E+00,      0.5322E-05
     0.5097E+00,      0.3763E-05
     0.5066E+00,      0.2658E-05
     0.5036E+00,      0.1876E-05
     0.5007E+00,      0.1323E-05
     0.4978E+00,      0.9322E-06
     0.4950E+00,      0.6563E-06
     0.4922E+00,      0.4617E-06
     0.4895E+00,      0.3246E-06
     0.4868E+00,      0.2280E-06
     0.4842E+00,      0.1601E-06
     0.4817E+00,      0.1123E-06
     0.4792E+00,      0.7875E-07
     0.4768E+00,      0.5518E-07
     0.4744E+00,      0.3865E-07
     0.4721E+00,      0.2705E-07
     0.4698E+00,      0.1893E-07
     0.4676E+00,      0.1324E-07
     0.4655E+00,      0.9255E-08
     0.4634E+00,      0.6468E-08
     0.4613E+00,      0.4519E-08
     0.4593E+00,      0.3156E-08
     0.4573E+00,      0.2203E-08
     0.4554E+00,      0.1538E-08
     0.4536E+00,      0.1073E-08
     0.4517E+00,      0.7491E-09
     0.4500E+00,      0.5227E-09
     0.4482E+00,      0.3647E-09
     0.4465E+00,      0.2544E-09
     0.4449E+00,      0.1775E-09
     0.4432E+00,      0.1239E-09
     0.4416E+00,      0.8642E-10
     0.4401E+00,      0.6031E-10
     0.4385E+00,      0.4210E-10
     0.4370E+00,      0.2939E-10
     0.4355E+00,      0.2052E-10
     0.4340E+00,      0.1434E-10
     0.4325E+00,      0.1002E-10
     0.4310E+00,      0.7004E-11
     0.4295E+00,      0.4898E-11
     0.4280E+00,      0.3427E-11
     0.4265E+00,      0.2399E-11
     0.4250E+00,      0.1681E-11
     0.4234E+00,      0.1178E-11
     0.4218E+00,      0.8261E-12
     0.4202E+00,      0.5798E-12
     0.4186E+00,      0.4073E-12
     0.4169E+00,      0.2863E-12
     0.4152E+00,      0.2014E-12
     0.4134E+00,      0.1418E-12
     0.4116E+00,      0.9997E-13
     0.4098E+00,      0.7051E-13
     0.4079E+00,      0.4976E-13
     0.4060E+00,      0.3510E-13
     0.4040E+00,      0.2473E-13
     0.4020E+00,      0.1736E-13
     0.4001E+00,      0.1207E-13
     0.3981E+00,      0.8248E-14
     0.3962E+00,      0.5419E-14
     0.3943E+00,      0.3257E-14
     0.3926E+00,      0.1516E-14
     0.3912E+00,      0.0000E+00
     0.6468E+00,      0.1000E+01
     0.6432E+00,      0.7580E+00
     0.6396E+00,      0.5714E+00
     0.6360E+00,      0.4288E+00
     0.6324E+00,      0.3206E+00
     0.6287E+00,      0.2389E+00
     0.6250E+00,      0.1775E+00
     0.6212E+00,      0.1316E+00
     0.6173E+00,      0.9730E-01
     0.6134E+00,      0.7178E-01
     0.6094E+00,      0.5285E-01
     0.6054E+00,      0.3883E-01
     0.6013E+00,      0.2847E-01
     0.5973E+00,      0.2084E-01
     0.5932E+00,      0.1523E-01
     0.5891E+00,      0.1111E-01
     0.5850E+00,      0.8087E-02
     0.5810E+00,      0.5878E-02
     0.5769E+00,      0.4266E-02
     0.5729E+00,      0.3091E-02
     0.5688E+00,      0.2236E-02
     0.5649E+00,      0.1615E-02
     0.5609E+00,      0.1165E-02
     0.5570E+00,      0.8390E-03
     0.5531E+00,      0.6034E-03
     0.5492E+00,      0.4333E-03
     0.5454E+00,      0.3108E-03
     0.5416E+00,      0.2226E-03
     0.5379E+00,      0.1592E-03
     0.5342E+00,      0.1138E-03
     0.5305E+00,      0.8117E-04
     0.5269E+00,      0.5785E-04
     0.5234E+00,      0.4118E-04
     0.5199E+00,      0.2928E-04
     0.5164E+00,      0.2080E-04
     0.5130E+00,      0.1476E-04
     0.5097E+00,      0.1046E-04
     0.5064E+00,      0.7406E-05
     0.5032E+00,      0.5238E-05
     0.5000E+00,      0.3702E-05
     0.4968E+00,      0.2614E-05
     0.4938E+00,      0.1844E-05
     0.4907E+00,      0.1299E-05
     0.4878E+00,      0.9150E-06
     0.4848E+00,      0.6438E-06
     0.4820E+00,      0.4527E-06
     0.4792E+00,      0.3180E-06
     0.4764E+00,      0.2233E-06
     0.4737E+00,      0.1566E-06
     0.4710E+00,      0.1098E-06
     0.4685E+00,      0.7696E-07
     0.4659E+00,      0.5389E-07
     0.4634E+00,      0.3772E-07
     0.4610E+00,      0.2639E-07
     0.4586E+00,      0.1845E-07
     0.4563E+00,      0.1290E-07
     0.4540E+00,      0.9009E-08
     0.4518E+00,      0.6291E-08
     0.4497E+00,      0.4392E-08
     0.4475E+00,      0.3065E-08
     0.4455E+00,      0.2138E-08
     0.4434E+00,      0.1492E-08
     0.4414E+00,      0.1040E-08
     0.4395E+00,      0.7253E-09
     0.4376E+00,      0.5057E-09
     0.4357E+00,      0.3525E-09
     0.4339E+00,      0.2457E-09
     0.4321E+00,      0.1713E-09
     0.4303E+00,      0.1194E-09
     0.4286E+00,      0.8326E-10
     0.4269E+00,      0.5805E-10
     0.4252E+00,      0.4048E-10
     0.4236E+00,      0.2824E-10
     0.4219E+00,      0.1970E-10
     0.4203E+00,      0.1375E-10
     0.4187E+00,      0.9599E-11
     0.4170E+00,      0.6703E-11
     0.4154E+00,      0.4684E-11
     0.4138E+00,      0.3274E-11
     0.4121E+00,      0.2290E-11
     0.4105E+00,      0.1602E-11
     0.4088E+00,      0.1122E-11
     0.4071E+00,      0.7860E-12
     0.4053E+00,      0.5511E-12
     0.4036E+00,      0.3867E-12
     0.4018E+00,      0.2716E-12
     0.4000E+00,      0.1909E-12
     0.3982E+00,      0.1343E-12
     0.3963E+00,      0.9456E-13
     0.3944E+00,      0.6663E-13
     0.3924E+00,      0.4698E-13
     0.3904E+00,      0.3311E-13
     0.3884E+00,      0.2331E-13
     0.3864E+00,      0.1635E-13
     0.3844E+00,      0.1136E-13
     0.3824E+00,      0.7757E-14
     0.3805E+00,      0.5093E-14
     0.3786E+00,      0.3060E-14
     0.3769E+00,      0.1423E-14
     0.3756E+00,      0.0000E+00
     0.6412E+00,      0.1000E+01
     0.6375E+00,      0.7580E+00
     0.6337E+00,      0.5713E+00
     0.6299E+00,      0.4286E+00
     0.6261E+00,      0.3204E+00
     0.6222E+00,      0.2387E+00
     0.6182E+00,      0.1773E+00
     0.6142E+00,      0.1313E+00
     0.6102E+00,      0.9703E-01
     0.6061E+00,      0.7154E-01
     0.6020E+00,      0.5264E-01
     0.5979E+00,      0.3865E-01
     0.5937E+00,      0.2832E-01
     0.5896E+00,      0.2072E-01
     0.5854E+00,      0.1513E-01
     0.5813E+00,      0.1102E-01
     0.5771E+00,      0.8021E-02
     0.5730E+00,      0.5826E-02
     0.5688E+00,      0.4225E-02
     0.5647E+00,      0.3059E-02
     0.5606E+00,      0.2211E-02
     0.5566E+00,      0.1596E-02
     0.5525E+00,      0.1150E-02
     0.5485E+00,      0.8277E-03
     0.5446E+00,      0.5948E-03
     0.5406E+00,      0.4268E-03
     0.5368E+00,      0.3059E-03
     0.5329E+00,      0.2189E-03
     0.5291E+00,      0.1565E-03
     0.5253E+00,      0.1117E-03
     0.5216E+00,      0.7963E-04
     0.5179E+00,      0.5671E-04
     0.5143E+00,      0.4033E-04
     0.5107E+00,      0.2865E-04
     0.5072E+00,      0.2033E-04
     0.5037E+00,      0.1442E-04
     0.5003E+00,      0.1021E-04
     0.4969E+00,      0.7221E-05
     0.4936E+00,      0.5103E-05
     0.4903E+00,      0.3603E-05
     0.4871E+00,      0.2542E-05
     0.4839E+00,      0.1791E-05
     0.4808E+00,      0.1261E-05
     0.4777E+00,      0.8873E-06
     0.4747E+00,      0.6237E-06
     0.4717E+00,      0.4381E-06
     0.4688E+00,      0.3075E-06
     0.4660E+00,      0.2157E-06
     0.4632E+00,      0.1512E-06
     0.4604E+00,      0.1059E-06
     0.4577E+00,      0.7411E-07
     0.4551E+00,      0.5185E-07
     0.4525E+00,      0.3625E-07
     0.4499E+00,      0.2533E-07
     0.4475E+00,      0.1769E-07
     0.4450E+00,      0.1235E-07
     0.4427E+00,      0.8620E-08
     0.4403E+00,      0.6013E-08
     0.4380E+00,      0.4192E-08
     0.4358E+00,      0.2922E-08
     0.4336E+00,      0.2037E-08
     0.4314E+00,      0.1419E-08
     0.4293E+00,      0.9883E-09
     0.4273E+00,      0.6882E-09
     0.4252E+00,      0.4792E-09
     0.4232E+00,      0.3337E-09
     0.4213E+00,      0.2323E-09
     0.4194E+00,      0.1617E-09
     0.4175E+00,      0.1126E-09
     0.4156E+00,      0.7839E-10
     0.4138E+00,      0.5458E-10
     0.4120E+00,      0.3801E-10
     0.4102E+00,      0.2648E-10
     0.4084E+00,      0.1845E-10
     0.4066E+00,      0.1285E-10
     0.4049E+00,      0.8961E-11
     0.4031E+00,      0.6249E-11
     0.4013E+00,      0.4360E-11
     0.3996E+00,      0.3043E-11
     0.3978E+00,      0.2125E-11
     0.3960E+00,      0.1485E-11
     0.3942E+00,      0.1038E-11
     0.3924E+00,      0.7262E-12
     0.3906E+00,      0.5084E-12
     0.3887E+00,      0.3562E-12
     0.3868E+00,      0.2498E-12
     0.3849E+00,      0.1753E-12
     0.3830E+00,      0.1232E-12
     0.3810E+00,      0.8661E-13
     0.3790E+00,      0.6095E-13
     0.3770E+00,      0.4291E-13
     0.3750E+00,      0.3021E-13
     0.3729E+00,      0.2124E-13
     0.3709E+00,      0.1488E-13
     0.3688E+00,      0.1033E-13
     0.3668E+00,      0.7046E-14
     0.3648E+00,      0.4623E-14
     0.3630E+00,      0.2775E-14
     0.3613E+00,      0.1290E-14
     0.3601E+00,      0.0000E+00
     0.6353E+00,      0.1000E+01
     0.6315E+00,      0.7578E+00
     0.6277E+00,      0.5711E+00
     0.6237E+00,      0.4283E+00
     0.6197E+00,      0.3200E+00
     0.6156E+00,      0.2382E+00
     0.6115E+00,      0.1768E+00
     0.6073E+00,      0.1309E+00
     0.6031E+00,      0.9667E-01
     0.5989E+00,      0.7122E-01
     0.5947E+00,      0.5236E-01
     0.5904E+00,      0.3841E-01
     0.5862E+00,      0.2812E-01
     0.5819E+00,      0.2055E-01
     0.5777E+00,      0.1499E-01
     0.5734E+00,      0.1092E-01
     0.5692E+00,      0.7936E-02
     0.5650E+00,      0.5759E-02
     0.5608E+00,      0.4172E-02
     0.5566E+00,      0.3018E-02
     0.5524E+00,      0.2179E-02
     0.5483E+00,      0.1571E-02
     0.5442E+00,      0.1131E-02
     0.5401E+00,      0.8134E-03
     0.5361E+00,      0.5839E-03
     0.5321E+00,      0.4186E-03
     0.5281E+00,      0.2997E-03
     0.5242E+00,      0.2143E-03
     0.5203E+00,      0.1530E-03
     0.5165E+00,      0.1091E-03
     0.5127E+00,      0.7770E-04
     0.5089E+00,      0.5527E-04
     0.5052E+00,      0.3927E-04
     0.5016E+00,      0.2787E-04
     0.4980E+00,      0.1976E-04
     0.4944E+00,      0.1399E-04
     0.4909E+00,      0.9896E-05
     0.4874E+00,      0.6993E-05
     0.4840E+00,      0.4936E-05
     0.4806E+00,      0.3481E-05
     0.4773E+00,      0.2453E-05
     0.4741E+00,      0.1727E-05
     0.4708E+00,      0.1214E-05
     0.4677E+00,      0.8533E-06
     0.4646E+00,      0.5991E-06
     0.4615E+00,      0.4203E-06
     0.4585E+00,      0.2946E-06
     0.4555E+00,      0.2064E-06
     0.4526E+00,      0.1445E-06
     0.4498E+00,      0.1011E-06
     0.4470E+00,      0.7066E-07
     0.4442E+00,      0.4936E-07
     0.4415E+00,      0.3447E-07
     0.4389E+00,      0.2406E-07
     0.4363E+00,      0.1678E-07
     0.4338E+00,      0.1170E-07
     0.4313E+00,      0.8152E-08
     0.4288E+00,      0.5678E-08
     0.4264E+00,      0.3954E-08
     0.4241E+00,      0.2752E-08
     0.4218E+00,      0.1915E-08
     0.4195E+00,      0.1332E-08
     0.4172E+00,      0.9266E-09
     0.4151E+00,      0.6443E-09
     0.4129E+00,      0.4479E-09
     0.4108E+00,      0.3114E-09
     0.4087E+00,      0.2165E-09
     0.4066E+00,      0.1505E-09
     0.4046E+00,      0.1046E-09
     0.4026E+00,      0.7269E-10
     0.4007E+00,      0.5053E-10
     0.3987E+00,      0.3513E-10
     0.3968E+00,      0.2443E-10
     0.3949E+00,      0.1699E-10
     0.3930E+00,      0.1182E-10
     0.3911E+00,      0.8227E-11
     0.3892E+00,      0.5727E-11
     0.3873E+00,      0.3989E-11
     0.3854E+00,      0.2779E-11
     0.3835E+00,      0.1937E-11
     0.3816E+00,      0.1351E-11
     0.3797E+00,      0.9430E-12
     0.3778E+00,      0.6586E-12
     0.3758E+00,      0.4603E-12
     0.3739E+00,      0.3219E-12
     0.3719E+00,      0.2254E-12
     0.3699E+00,      0.1579E-12
     0.3679E+00,      0.1107E-12
     0.3659E+00,      0.7775E-13
     0.3638E+00,      0.5462E-13
     0.3617E+00,      0.3840E-13
     0.3596E+00,      0.2699E-13
     0.3575E+00,      0.1895E-13
     0.3554E+00,      0.1326E-13
     0.3534E+00,      0.9195E-14
     0.3513E+00,      0.6264E-14
     0.3493E+00,      0.4106E-14
     0.3475E+00,      0.2463E-14
     0.3458E+00,      0.1145E-14
     0.3446E+00,      0.0000E+00
     0.6293E+00,      0.1000E+01
     0.6255E+00,      0.7576E+00
     0.6215E+00,      0.5706E+00
     0.6174E+00,      0.4278E+00
     0.6133E+00,      0.3194E+00
     0.6090E+00,      0.2377E+00
     0.6047E+00,      0.1763E+00
     0.6004E+00,      0.1304E+00
     0.5961E+00,      0.9622E-01
     0.5917E+00,      0.7083E-01
     0.5874E+00,      0.5202E-01
     0.5830E+00,      0.3813E-01
     0.5787E+00,      0.2789E-01
     0.5743E+00,      0.2036E-01
     0.5700E+00,      0.1484E-01
     0.5657E+00,      0.1079E-01
     0.5613E+00,      0.7837E-02
     0.5570E+00,      0.5681E-02
     0.5528E+00,      0.4111E-02
     0.5485E+00,      0.2971E-02
     0.5443E+00,      0.2143E-02
     0.5401E+00,      0.1543E-02
     0.5359E+00,      0.1110E-02
     0.5318E+00,      0.7971E-03
     0.5277E+00,      0.5715E-03
     0.5236E+00,      0.4093E-03
     0.5195E+00,      0.2926E-03
     0.5155E+00,      0.2090E-03
     0.5116E+00,      0.1490E-03
     0.5077E+00,      0.1061E-03
     0.5038E+00,      0.7551E-04
     0.5000E+00,      0.5365E-04
     0.4962E+00,      0.3807E-04
     0.4924E+00,      0.2699E-04
     0.4887E+00,      0.1911E-04
     0.4851E+00,      0.1351E-04
     0.4815E+00,      0.9546E-05
     0.4779E+00,      0.6737E-05
     0.4744E+00,      0.4749E-05
     0.4710E+00,      0.3345E-05
     0.4676E+00,      0.2354E-05
     0.4642E+00,      0.1655E-05
     0.4609E+00,      0.1162E-05
     0.4577E+00,      0.8156E-06
     0.4545E+00,      0.5718E-06
     0.4513E+00,      0.4006E-06
     0.4482E+00,      0.2805E-06
     0.4451E+00,      0.1962E-06
     0.4421E+00,      0.1371E-06
     0.4392E+00,      0.9579E-07
     0.4363E+00,      0.6687E-07
     0.4334E+00,      0.4665E-07
     0.4306E+00,      0.3253E-07
     0.4279E+00,      0.2267E-07
     0.4252E+00,      0.1579E-07
     0.4225E+00,      0.1099E-07
     0.4199E+00,      0.7645E-08
     0.4174E+00,      0.5317E-08
     0.4148E+00,      0.3697E-08
     0.4124E+00,      0.2569E-08
     0.4099E+00,      0.1785E-08
     0.4075E+00,      0.1239E-08
     0.4052E+00,      0.8606E-09
     0.4029E+00,      0.5974E-09
     0.4006E+00,      0.4147E-09
     0.3983E+00,      0.2878E-09
     0.3961E+00,      0.1997E-09
     0.3940E+00,      0.1386E-09
     0.3918E+00,      0.9613E-10
     0.3897E+00,      0.6670E-10
     0.3876E+00,      0.4629E-10
     0.3855E+00,      0.3212E-10
     0.3835E+00,      0.2230E-10
     0.3814E+00,      0.1548E-10
     0.3794E+00,      0.1075E-10
     0.3774E+00,      0.7466E-11
     0.3754E+00,      0.5188E-11
     0.3734E+00,      0.3606E-11
     0.3714E+00,      0.2508E-11
     0.3693E+00,      0.1745E-11
     0.3673E+00,      0.1215E-11
     0.3653E+00,      0.8461E-12
     0.3632E+00,      0.5897E-12
     0.3612E+00,      0.4114E-12
     0.3591E+00,      0.2872E-12
     0.3571E+00,      0.2007E-12
     0.3550E+00,      0.1404E-12
     0.3529E+00,      0.9826E-13
     0.3508E+00,      0.6886E-13
     0.3487E+00,      0.4830E-13
     0.3465E+00,      0.3390E-13
     0.3444E+00,      0.2379E-13
     0.3422E+00,      0.1668E-13
     0.3401E+00,      0.1165E-13
     0.3380E+00,      0.8070E-14
     0.3359E+00,      0.5491E-14
     0.3339E+00,      0.3596E-14
     0.3321E+00,      0.2156E-14
     0.3304E+00,      0.1001E-14
