# vtk DataFile Version 2.0
field data: pressure, temperature
ASCII
DATASET STRUCTURED_POINT
DIMENSIONS          100         100
ORIGIN      0.4950E-02      0.4950E-02
SPACING      0.9901E-02      0.9901E-02
     0.4840E+01,      0.1000E+01
     0.4730E+01,      0.6152E+00
     0.4624E+01,      0.3634E+00
     0.4523E+01,      0.2060E+00
     0.4428E+01,      0.1121E+00
     0.4337E+01,      0.5876E-01
     0.4251E+01,      0.2969E-01
     0.4170E+01,      0.1450E-01
     0.4093E+01,      0.6865E-02
     0.4019E+01,      0.3157E-02
     0.3950E+01,      0.1413E-02
     0.3884E+01,      0.6173E-03
     0.3822E+01,      0.2636E-03
     0.3764E+01,      0.1102E-03
     0.3709E+01,      0.4522E-04
     0.3658E+01,      0.1823E-04
     0.3609E+01,      0.7231E-05
     0.3564E+01,      0.2826E-05
     0.3523E+01,      0.1090E-05
     0.3484E+01,      0.4149E-06
     0.3448E+01,      0.1561E-06
     0.3416E+01,      0.5815E-07
     0.3386E+01,      0.2144E-07
     0.3359E+01,      0.7837E-08
     0.3334E+01,      0.2840E-08
     0.3312E+01,      0.1021E-08
     0.3292E+01,      0.3645E-09
     0.3274E+01,      0.1293E-09
     0.3259E+01,      0.4555E-10
     0.3245E+01,      0.1596E-10
     0.3233E+01,      0.5563E-11
     0.3223E+01,      0.1930E-11
     0.3214E+01,      0.6662E-12
     0.3207E+01,      0.2291E-12
     0.3201E+01,      0.7845E-13
     0.3196E+01,      0.2677E-13
     0.3192E+01,      0.9104E-14
     0.3188E+01,      0.3087E-14
     0.3186E+01,      0.1043E-14
     0.3184E+01,      0.3518E-15
     0.3182E+01,      0.1183E-15
     0.3181E+01,      0.3969E-16
     0.3180E+01,      0.1329E-16
     0.3179E+01,      0.4438E-17
     0.3179E+01,      0.1479E-17
     0.3178E+01,      0.4922E-18
     0.3178E+01,      0.1635E-18
     0.3177E+01,      0.5419E-19
     0.3177E+01,      0.1794E-19
     0.3176E+01,      0.5926E-20
     0.3175E+01,      0.1955E-20
     0.3174E+01,      0.6437E-21
     0.3172E+01,      0.2116E-21
     0.3171E+01,      0.6945E-22
     0.3169E+01,      0.2276E-22
     0.3166E+01,      0.7444E-23
     0.3164E+01,      0.2431E-23
     0.3160E+01,      0.7923E-24
     0.3157E+01,      0.2578E-24
     0.3153E+01,      0.8371E-25
     0.3149E+01,      0.2713E-25
     0.3144E+01,      0.8772E-26
     0.3140E+01,      0.2830E-26
     0.3135E+01,      0.9109E-27
     0.3131E+01,      0.2925E-27
     0.3128E+01,      0.9363E-28
     0.3126E+01,      0.2989E-28
     0.3125E+01,      0.9509E-29
     0.3126E+01,      0.3015E-29
     0.3130E+01,      0.9523E-30
     0.3137E+01,      0.2995E-30
     0.3148E+01,      0.9376E-31
     0.3164E+01,      0.2921E-31
     0.3185E+01,      0.9053E-32
     0.3214E+01,      0.2792E-32
     0.3251E+01,      0.8573E-33
     0.3299E+01,      0.2624E-33
     0.3358E+01,      0.8024E-34
     0.3431E+01,      0.2455E-34
     0.3521E+01,      0.7533E-35
     0.3633E+01,      0.2319E-35
     0.3769E+01,      0.7165E-36
     0.3938E+01,      0.2218E-36
     0.4144E+01,      0.6872E-37
     0.4396E+01,      0.2129E-37
     0.4706E+01,      0.6615E-38
     0.5085E+01,      0.2075E-38
     0.5550E+01,      0.6628E-39
     0.6121E+01,      0.2176E-39
     0.6823E+01,      0.7415E-40
     0.7692E+01,      0.2648E-40
     0.8782E+01,      0.9982E-41
     0.1017E+02,      0.3978E-41
     0.1199E+02,      0.1660E-41
     0.1442E+02,      0.7147E-42
     0.1781E+02,      0.3187E-42
     0.2289E+02,      0.1519E-42
     0.3136E+02,      0.3456E-43
     0.4686E+02,      0.3469E-44
     0.7472E+02,      0.0000E+00
     0.4651E+01,      0.1000E+01
     0.4543E+01,      0.6179E+00
     0.4439E+01,      0.3671E+00
     0.4339E+01,      0.2095E+00
     0.4244E+01,      0.1149E+00
     0.4154E+01,      0.6070E-01
     0.4068E+01,      0.3091E-01
     0.3986E+01,      0.1522E-01
     0.3909E+01,      0.7257E-02
     0.3835E+01,      0.3361E-02
     0.3765E+01,      0.1515E-02
     0.3699E+01,      0.6660E-03
     0.3636E+01,      0.2861E-03
     0.3577E+01,      0.1203E-03
     0.3521E+01,      0.4964E-04
     0.3469E+01,      0.2011E-04
     0.3420E+01,      0.8015E-05
     0.3375E+01,      0.3147E-05
     0.3333E+01,      0.1218E-05
     0.3294E+01,      0.4656E-06
     0.3258E+01,      0.1759E-06
     0.3224E+01,      0.6573E-07
     0.3194E+01,      0.2431E-07
     0.3167E+01,      0.8911E-08
     0.3142E+01,      0.3238E-08
     0.3120E+01,      0.1167E-08
     0.3099E+01,      0.4177E-09
     0.3082E+01,      0.1484E-09
     0.3066E+01,      0.5241E-10
     0.3052E+01,      0.1840E-10
     0.3040E+01,      0.6425E-11
     0.3030E+01,      0.2232E-11
     0.3021E+01,      0.7717E-12
     0.3014E+01,      0.2657E-12
     0.3007E+01,      0.9111E-13
     0.3002E+01,      0.3113E-13
     0.2998E+01,      0.1060E-13
     0.2995E+01,      0.3597E-14
     0.2992E+01,      0.1217E-14
     0.2990E+01,      0.4106E-15
     0.2988E+01,      0.1382E-15
     0.2987E+01,      0.4639E-16
     0.2986E+01,      0.1554E-16
     0.2985E+01,      0.5194E-17
     0.2985E+01,      0.1732E-17
     0.2984E+01,      0.5766E-18
     0.2984E+01,      0.1916E-18
     0.2983E+01,      0.6354E-19
     0.2983E+01,      0.2104E-19
     0.2982E+01,      0.6952E-20
     0.2981E+01,      0.2294E-20
     0.2980E+01,      0.7555E-21
     0.2979E+01,      0.2484E-21
     0.2977E+01,      0.8155E-22
     0.2975E+01,      0.2673E-22
     0.2973E+01,      0.8743E-23
     0.2970E+01,      0.2855E-23
     0.2967E+01,      0.9306E-24
     0.2964E+01,      0.3028E-24
     0.2960E+01,      0.9830E-25
     0.2956E+01,      0.3185E-25
     0.2952E+01,      0.1030E-25
     0.2948E+01,      0.3322E-26
     0.2944E+01,      0.1069E-26
     0.2940E+01,      0.3430E-27
     0.2938E+01,      0.1098E-27
     0.2936E+01,      0.3502E-28
     0.2936E+01,      0.1113E-28
     0.2938E+01,      0.3527E-29
     0.2942E+01,      0.1113E-29
     0.2950E+01,      0.3496E-30
     0.2962E+01,      0.1093E-30
     0.2979E+01,      0.3398E-31
     0.3003E+01,      0.1051E-31
     0.3033E+01,      0.3233E-32
     0.3072E+01,      0.9904E-33
     0.3122E+01,      0.3024E-33
     0.3183E+01,      0.9227E-34
     0.3258E+01,      0.2820E-34
     0.3351E+01,      0.8650E-35
     0.3463E+01,      0.2666E-35
     0.3598E+01,      0.8257E-36
     0.3763E+01,      0.2565E-36
     0.3961E+01,      0.7975E-37
     0.4201E+01,      0.2481E-37
     0.4493E+01,      0.7741E-38
     0.4847E+01,      0.2441E-38
     0.5279E+01,      0.7847E-39
     0.5806E+01,      0.2598E-39
     0.6449E+01,      0.8945E-40
     0.7239E+01,      0.3233E-40
     0.8215E+01,      0.1235E-40
     0.9439E+01,      0.4980E-41
     0.1099E+02,      0.2100E-41
     0.1300E+02,      0.9110E-42
     0.1566E+02,      0.4086E-42
     0.1929E+02,      0.1960E-42
     0.2455E+02,      0.4353E-43
     0.3250E+02,      0.3851E-44
     0.4285E+02,      0.0000E+00
     0.4469E+01,      0.1000E+01
     0.4362E+01,      0.6188E+00
     0.4259E+01,      0.3685E+00
     0.4160E+01,      0.2109E+00
     0.4066E+01,      0.1161E+00
     0.3976E+01,      0.6149E-01
     0.3890E+01,      0.3142E-01
     0.3808E+01,      0.1552E-01
     0.3730E+01,      0.7424E-02
     0.3656E+01,      0.3449E-02
     0.3585E+01,      0.1559E-02
     0.3518E+01,      0.6872E-03
     0.3455E+01,      0.2959E-03
     0.3396E+01,      0.1248E-03
     0.3339E+01,      0.5157E-04
     0.3287E+01,      0.2094E-04
     0.3237E+01,      0.8360E-05
     0.3191E+01,      0.3287E-05
     0.3149E+01,      0.1275E-05
     0.3109E+01,      0.4880E-06
     0.3073E+01,      0.1846E-06
     0.3039E+01,      0.6906E-07
     0.3009E+01,      0.2558E-07
     0.2981E+01,      0.9386E-08
     0.2956E+01,      0.3414E-08
     0.2933E+01,      0.1232E-08
     0.2913E+01,      0.4412E-09
     0.2895E+01,      0.1569E-09
     0.2879E+01,      0.5545E-10
     0.2865E+01,      0.1948E-10
     0.2853E+01,      0.6808E-11
     0.2843E+01,      0.2367E-11
     0.2834E+01,      0.8188E-12
     0.2826E+01,      0.2821E-12
     0.2820E+01,      0.9679E-13
     0.2815E+01,      0.3309E-13
     0.2811E+01,      0.1127E-13
     0.2807E+01,      0.3827E-14
     0.2805E+01,      0.1296E-14
     0.2802E+01,      0.4374E-15
     0.2801E+01,      0.1473E-15
     0.2800E+01,      0.4947E-16
     0.2799E+01,      0.1658E-16
     0.2798E+01,      0.5544E-17
     0.2797E+01,      0.1850E-17
     0.2797E+01,      0.6161E-18
     0.2796E+01,      0.2048E-18
     0.2796E+01,      0.6797E-19
     0.2795E+01,      0.2252E-19
     0.2795E+01,      0.7446E-20
     0.2794E+01,      0.2458E-20
     0.2793E+01,      0.8102E-21
     0.2792E+01,      0.2666E-21
     0.2790E+01,      0.8758E-22
     0.2788E+01,      0.2872E-22
     0.2786E+01,      0.9404E-23
     0.2784E+01,      0.3074E-23
     0.2781E+01,      0.1003E-23
     0.2778E+01,      0.3266E-24
     0.2774E+01,      0.1062E-24
     0.2771E+01,      0.3444E-25
     0.2767E+01,      0.1115E-25
     0.2763E+01,      0.3602E-26
     0.2760E+01,      0.1161E-26
     0.2756E+01,      0.3731E-27
     0.2754E+01,      0.1196E-27
     0.2753E+01,      0.3825E-28
     0.2753E+01,      0.1219E-28
     0.2756E+01,      0.3871E-29
     0.2761E+01,      0.1225E-29
     0.2770E+01,      0.3859E-30
     0.2783E+01,      0.1210E-30
     0.2801E+01,      0.3778E-31
     0.2826E+01,      0.1173E-31
     0.2858E+01,      0.3622E-32
     0.2898E+01,      0.1113E-32
     0.2948E+01,      0.3410E-33
     0.3011E+01,      0.1043E-33
     0.3087E+01,      0.3195E-34
     0.3179E+01,      0.9821E-35
     0.3289E+01,      0.3034E-35
     0.3421E+01,      0.9407E-36
     0.3579E+01,      0.2920E-36
     0.3768E+01,      0.9047E-37
     0.3993E+01,      0.2798E-37
     0.4264E+01,      0.8680E-38
     0.4590E+01,      0.2723E-38
     0.4982E+01,      0.8717E-39
     0.5457E+01,      0.2870E-39
     0.6029E+01,      0.9787E-40
     0.6723E+01,      0.3479E-40
     0.7565E+01,      0.1292E-40
     0.8595E+01,      0.4981E-41
     0.9864E+01,      0.1961E-41
     0.1143E+02,      0.7713E-42
     0.1338E+02,      0.3028E-42
     0.1581E+02,      0.1355E-42
     0.1890E+02,      0.4203E-43
     0.2285E+02,      0.3947E-44
     0.2681E+02,      0.0000E+00
     0.4296E+01,      0.1000E+01
     0.4188E+01,      0.6191E+00
     0.4086E+01,      0.3690E+00
     0.3987E+01,      0.2114E+00
     0.3893E+01,      0.1165E+00
     0.3803E+01,      0.6183E-01
     0.3717E+01,      0.3164E-01
     0.3635E+01,      0.1565E-01
     0.3556E+01,      0.7498E-02
     0.3482E+01,      0.3488E-02
     0.3411E+01,      0.1579E-02
     0.3344E+01,      0.6968E-03
     0.3280E+01,      0.3005E-03
     0.3220E+01,      0.1268E-03
     0.3163E+01,      0.5247E-04
     0.3110E+01,      0.2132E-04
     0.3060E+01,      0.8521E-05
     0.3014E+01,      0.3354E-05
     0.2971E+01,      0.1301E-05
     0.2931E+01,      0.4985E-06
     0.2894E+01,      0.1887E-06
     0.2860E+01,      0.7065E-07
     0.2830E+01,      0.2618E-07
     0.2802E+01,      0.9612E-08
     0.2776E+01,      0.3498E-08
     0.2754E+01,      0.1263E-08
     0.2733E+01,      0.4525E-09
     0.2715E+01,      0.1610E-09
     0.2699E+01,      0.5692E-10
     0.2685E+01,      0.2001E-10
     0.2673E+01,      0.6993E-11
     0.2662E+01,      0.2432E-11
     0.2653E+01,      0.8418E-12
     0.2646E+01,      0.2901E-12
     0.2639E+01,      0.9958E-13
     0.2634E+01,      0.3405E-13
     0.2630E+01,      0.1160E-13
     0.2626E+01,      0.3942E-14
     0.2624E+01,      0.1335E-14
     0.2621E+01,      0.4508E-15
     0.2620E+01,      0.1519E-15
     0.2619E+01,      0.5103E-16
     0.2618E+01,      0.1711E-16
     0.2617E+01,      0.5723E-17
     0.2616E+01,      0.1911E-17
     0.2616E+01,      0.6367E-18
     0.2615E+01,      0.2118E-18
     0.2615E+01,      0.7031E-19
     0.2615E+01,      0.2330E-19
     0.2614E+01,      0.7710E-20
     0.2613E+01,      0.2547E-20
     0.2612E+01,      0.8400E-21
     0.2611E+01,      0.2766E-21
     0.2610E+01,      0.9092E-22
     0.2608E+01,      0.2984E-22
     0.2606E+01,      0.9778E-23
     0.2604E+01,      0.3199E-23
     0.2601E+01,      0.1045E-23
     0.2598E+01,      0.3406E-24
     0.2595E+01,      0.1108E-24
     0.2592E+01,      0.3600E-25
     0.2589E+01,      0.1167E-25
     0.2585E+01,      0.3775E-26
     0.2582E+01,      0.1218E-26
     0.2580E+01,      0.3924E-27
     0.2578E+01,      0.1261E-27
     0.2577E+01,      0.4039E-28
     0.2578E+01,      0.1290E-28
     0.2581E+01,      0.4110E-29
     0.2587E+01,      0.1304E-29
     0.2597E+01,      0.4125E-30
     0.2610E+01,      0.1299E-30
     0.2629E+01,      0.4073E-31
     0.2654E+01,      0.1271E-31
     0.2687E+01,      0.3945E-32
     0.2728E+01,      0.1219E-32
     0.2778E+01,      0.3754E-33
     0.2840E+01,      0.1154E-33
     0.2915E+01,      0.3548E-34
     0.3005E+01,      0.1094E-34
     0.3112E+01,      0.3385E-35
     0.3239E+01,      0.1049E-35
     0.3389E+01,      0.3247E-36
     0.3565E+01,      0.1001E-36
     0.3774E+01,      0.3078E-37
     0.4022E+01,      0.9506E-38
     0.4316E+01,      0.2974E-38
     0.4667E+01,      0.9486E-39
     0.5085E+01,      0.3102E-39
     0.5582E+01,      0.1045E-39
     0.6175E+01,      0.3632E-40
     0.6881E+01,      0.1302E-40
     0.7721E+01,      0.4768E-41
     0.8722E+01,      0.1752E-41
     0.9904E+01,      0.6306E-42
     0.1128E+02,      0.2207E-42
     0.1285E+02,      0.8182E-43
     0.1461E+02,      0.3432E-43
     0.1650E+02,      0.3964E-44
     0.1789E+02,      0.0000E+00
     0.4128E+01,      0.1000E+01
     0.4021E+01,      0.6192E+00
     0.3918E+01,      0.3692E+00
     0.3820E+01,      0.2116E+00
     0.3726E+01,      0.1167E+00
     0.3636E+01,      0.6196E-01
     0.3549E+01,      0.3173E-01
     0.3467E+01,      0.1570E-01
     0.3389E+01,      0.7530E-02
     0.3314E+01,      0.3505E-02
     0.3243E+01,      0.1588E-02
     0.3175E+01,      0.7012E-03
     0.3111E+01,      0.3025E-03
     0.3050E+01,      0.1277E-03
     0.2993E+01,      0.5288E-04
     0.2940E+01,      0.2150E-04
     0.2889E+01,      0.8597E-05
     0.2843E+01,      0.3385E-05
     0.2799E+01,      0.1314E-05
     0.2759E+01,      0.5036E-06
     0.2722E+01,      0.1907E-06
     0.2688E+01,      0.7142E-07
     0.2657E+01,      0.2648E-07
     0.2629E+01,      0.9723E-08
     0.2603E+01,      0.3539E-08
     0.2580E+01,      0.1278E-08
     0.2559E+01,      0.4581E-09
     0.2541E+01,      0.1630E-09
     0.2525E+01,      0.5766E-10
     0.2511E+01,      0.2027E-10
     0.2499E+01,      0.7087E-11
     0.2488E+01,      0.2465E-11
     0.2479E+01,      0.8536E-12
     0.2471E+01,      0.2942E-12
     0.2465E+01,      0.1010E-12
     0.2459E+01,      0.3456E-13
     0.2455E+01,      0.1178E-13
     0.2452E+01,      0.4002E-14
     0.2449E+01,      0.1356E-14
     0.2447E+01,      0.4581E-15
     0.2445E+01,      0.1543E-15
     0.2444E+01,      0.5188E-16
     0.2443E+01,      0.1740E-16
     0.2442E+01,      0.5823E-17
     0.2442E+01,      0.1945E-17
     0.2441E+01,      0.6483E-18
     0.2441E+01,      0.2157E-18
     0.2441E+01,      0.7165E-19
     0.2440E+01,      0.2376E-19
     0.2440E+01,      0.7865E-20
     0.2439E+01,      0.2599E-20
     0.2438E+01,      0.8578E-21
     0.2437E+01,      0.2826E-21
     0.2436E+01,      0.9296E-22
     0.2435E+01,      0.3053E-22
     0.2433E+01,      0.1001E-22
     0.2431E+01,      0.3278E-23
     0.2429E+01,      0.1071E-23
     0.2426E+01,      0.3496E-24
     0.2423E+01,      0.1139E-24
     0.2420E+01,      0.3703E-25
     0.2417E+01,      0.1202E-25
     0.2414E+01,      0.3893E-26
     0.2412E+01,      0.1259E-26
     0.2409E+01,      0.4060E-27
     0.2408E+01,      0.1307E-27
     0.2408E+01,      0.4195E-28
     0.2410E+01,      0.1343E-28
     0.2413E+01,      0.4289E-29
     0.2420E+01,      0.1365E-29
     0.2429E+01,      0.4331E-30
     0.2444E+01,      0.1369E-30
     0.2463E+01,      0.4309E-31
     0.2488E+01,      0.1351E-31
     0.2520E+01,      0.4215E-32
     0.2561E+01,      0.1310E-32
     0.2611E+01,      0.4056E-33
     0.2671E+01,      0.1253E-33
     0.2744E+01,      0.3871E-34
     0.2831E+01,      0.1197E-34
     0.2933E+01,      0.3707E-35
     0.3053E+01,      0.1147E-35
     0.3192E+01,      0.3537E-36
     0.3355E+01,      0.1085E-36
     0.3546E+01,      0.3326E-37
     0.3769E+01,      0.1026E-37
     0.4030E+01,      0.3205E-38
     0.4337E+01,      0.1020E-38
     0.4698E+01,      0.3313E-39
     0.5121E+01,      0.1101E-39
     0.5615E+01,      0.3747E-40
     0.6190E+01,      0.1300E-40
     0.6856E+01,      0.4555E-41
     0.7620E+01,      0.1587E-41
     0.8483E+01,      0.5401E-42
     0.9424E+01,      0.1780E-42
     0.1041E+02,      0.5957E-43
     0.1137E+02,      0.2634E-43
     0.1219E+02,      0.3976E-44
     0.1248E+02,      0.0000E+00
     0.3968E+01,      0.1000E+01
     0.3860E+01,      0.6192E+00
     0.3757E+01,      0.3692E+00
     0.3658E+01,      0.2117E+00
     0.3564E+01,      0.1168E+00
     0.3474E+01,      0.6200E-01
     0.3388E+01,      0.3176E-01
     0.3305E+01,      0.1572E-01
     0.3227E+01,      0.7542E-02
     0.3151E+01,      0.3512E-02
     0.3080E+01,      0.1591E-02
     0.3012E+01,      0.7029E-03
     0.2948E+01,      0.3034E-03
     0.2887E+01,      0.1281E-03
     0.2829E+01,      0.5306E-04
     0.2775E+01,      0.2158E-04
     0.2725E+01,      0.8631E-05
     0.2677E+01,      0.3399E-05
     0.2634E+01,      0.1320E-05
     0.2593E+01,      0.5059E-06
     0.2556E+01,      0.1916E-06
     0.2521E+01,      0.7178E-07
     0.2490E+01,      0.2662E-07
     0.2462E+01,      0.9776E-08
     0.2436E+01,      0.3560E-08
     0.2413E+01,      0.1286E-08
     0.2392E+01,      0.4608E-09
     0.2374E+01,      0.1641E-09
     0.2357E+01,      0.5803E-10
     0.2343E+01,      0.2040E-10
     0.2331E+01,      0.7136E-11
     0.2320E+01,      0.2483E-11
     0.2311E+01,      0.8597E-12
     0.2303E+01,      0.2964E-12
     0.2297E+01,      0.1018E-12
     0.2291E+01,      0.3483E-13
     0.2287E+01,      0.1187E-13
     0.2283E+01,      0.4036E-14
     0.2281E+01,      0.1368E-14
     0.2279E+01,      0.4621E-15
     0.2277E+01,      0.1558E-15
     0.2276E+01,      0.5237E-16
     0.2275E+01,      0.1757E-16
     0.2274E+01,      0.5882E-17
     0.2274E+01,      0.1965E-17
     0.2273E+01,      0.6553E-18
     0.2273E+01,      0.2181E-18
     0.2273E+01,      0.7249E-19
     0.2272E+01,      0.2405E-19
     0.2272E+01,      0.7964E-20
     0.2271E+01,      0.2633E-20
     0.2271E+01,      0.8694E-21
     0.2270E+01,      0.2866E-21
     0.2269E+01,      0.9433E-22
     0.2268E+01,      0.3100E-22
     0.2266E+01,      0.1017E-22
     0.2264E+01,      0.3333E-23
     0.2262E+01,      0.1090E-23
     0.2260E+01,      0.3560E-24
     0.2258E+01,      0.1161E-24
     0.2255E+01,      0.3779E-25
     0.2252E+01,      0.1228E-25
     0.2250E+01,      0.3982E-26
     0.2248E+01,      0.1289E-26
     0.2246E+01,      0.4165E-27
     0.2245E+01,      0.1343E-27
     0.2245E+01,      0.4318E-28
     0.2247E+01,      0.1385E-28
     0.2251E+01,      0.4434E-29
     0.2258E+01,      0.1415E-29
     0.2268E+01,      0.4501E-30
     0.2282E+01,      0.1427E-30
     0.2301E+01,      0.4509E-31
     0.2326E+01,      0.1419E-31
     0.2358E+01,      0.4449E-32
     0.2397E+01,      0.1389E-32
     0.2446E+01,      0.4323E-33
     0.2504E+01,      0.1342E-33
     0.2573E+01,      0.4160E-34
     0.2655E+01,      0.1290E-34
     0.2751E+01,      0.3994E-35
     0.2863E+01,      0.1234E-35
     0.2991E+01,      0.3793E-36
     0.3139E+01,      0.1161E-36
     0.3310E+01,      0.3554E-37
     0.3508E+01,      0.1096E-37
     0.3736E+01,      0.3426E-38
     0.3999E+01,      0.1088E-38
     0.4304E+01,      0.3512E-39
     0.4655E+01,      0.1154E-39
     0.5057E+01,      0.3850E-40
     0.5513E+01,      0.1301E-40
     0.6026E+01,      0.4416E-41
     0.6592E+01,      0.1490E-41
     0.7199E+01,      0.4950E-42
     0.7818E+01,      0.1607E-42
     0.8403E+01,      0.5187E-43
     0.8884E+01,      0.2096E-43
     0.9140E+01,      0.4042E-44
