# vtk DataFile Version 2.0
field data: pressure, temperature
ASCII
DATASET STRUCTURED_POINT
DIMENSIONS          100         100
ORIGIN      0.4950E-02      0.4950E-02
SPACING      0.9901E-02      0.9901E-02
    -0.2082E+00,      0.1000E+01
    -0.2072E+00,      0.9100E+00
    -0.2049E+00,      0.8211E+00
    -0.2017E+00,      0.7345E+00
    -0.1977E+00,      0.6512E+00
    -0.1933E+00,      0.5721E+00
    -0.1885E+00,      0.4978E+00
    -0.1835E+00,      0.4291E+00
    -0.1784E+00,      0.3663E+00
    -0.1732E+00,      0.3096E+00
    -0.1679E+00,      0.2591E+00
    -0.1627E+00,      0.2146E+00
    -0.1576E+00,      0.1760E+00
    -0.1525E+00,      0.1428E+00
    -0.1475E+00,      0.1147E+00
    -0.1425E+00,      0.9118E-01
    -0.1377E+00,      0.7171E-01
    -0.1330E+00,      0.5581E-01
    -0.1284E+00,      0.4298E-01
    -0.1240E+00,      0.3275E-01
    -0.1196E+00,      0.2469E-01
    -0.1154E+00,      0.1842E-01
    -0.1113E+00,      0.1359E-01
    -0.1074E+00,      0.9924E-02
    -0.1036E+00,      0.7170E-02
    -0.9987E-01,      0.5125E-02
    -0.9628E-01,      0.3625E-02
    -0.9281E-01,      0.2537E-02
    -0.8944E-01,      0.1757E-02
    -0.8618E-01,      0.1204E-02
    -0.8303E-01,      0.8164E-03
    -0.7997E-01,      0.5479E-03
    -0.7700E-01,      0.3639E-03
    -0.7413E-01,      0.2392E-03
    -0.7135E-01,      0.1556E-03
    -0.6865E-01,      0.1002E-03
    -0.6603E-01,      0.6385E-04
    -0.6349E-01,      0.4029E-04
    -0.6102E-01,      0.2516E-04
    -0.5863E-01,      0.1556E-04
    -0.5631E-01,      0.9526E-05
    -0.5406E-01,      0.5775E-05
    -0.5188E-01,      0.3466E-05
    -0.4976E-01,      0.2060E-05
    -0.4771E-01,      0.1213E-05
    -0.4572E-01,      0.7070E-06
    -0.4378E-01,      0.4082E-06
    -0.4191E-01,      0.2335E-06
    -0.4009E-01,      0.1323E-06
    -0.3832E-01,      0.7424E-07
    -0.3661E-01,      0.4128E-07
    -0.3496E-01,      0.2274E-07
    -0.3335E-01,      0.1242E-07
    -0.3179E-01,      0.6716E-08
    -0.3029E-01,      0.3600E-08
    -0.2883E-01,      0.1913E-08
    -0.2741E-01,      0.1007E-08
    -0.2604E-01,      0.5256E-09
    -0.2472E-01,      0.2719E-09
    -0.2344E-01,      0.1394E-09
    -0.2220E-01,      0.7090E-10
    -0.2100E-01,      0.3574E-10
    -0.1985E-01,      0.1786E-10
    -0.1873E-01,      0.8853E-11
    -0.1766E-01,      0.4351E-11
    -0.1662E-01,      0.2121E-11
    -0.1562E-01,      0.1025E-11
    -0.1466E-01,      0.4916E-12
    -0.1373E-01,      0.2338E-12
    -0.1284E-01,      0.1103E-12
    -0.1199E-01,      0.5163E-13
    -0.1116E-01,      0.2397E-13
    -0.1038E-01,      0.1104E-13
    -0.9624E-02,      0.5049E-14
    -0.8903E-02,      0.2290E-14
    -0.8215E-02,      0.1031E-14
    -0.7558E-02,      0.4605E-15
    -0.6933E-02,      0.2042E-15
    -0.6339E-02,      0.8986E-16
    -0.5775E-02,      0.3925E-16
    -0.5241E-02,      0.1702E-16
    -0.4737E-02,      0.7326E-17
    -0.4263E-02,      0.3131E-17
    -0.3817E-02,      0.1328E-17
    -0.3400E-02,      0.5595E-18
    -0.3011E-02,      0.2340E-18
    -0.2649E-02,      0.9721E-19
    -0.2315E-02,      0.4010E-19
    -0.2008E-02,      0.1642E-19
    -0.1727E-02,      0.6682E-20
    -0.1471E-02,      0.2700E-20
    -0.1241E-02,      0.1084E-20
    -0.1034E-02,      0.4320E-21
    -0.8494E-03,      0.1711E-21
    -0.6856E-03,      0.6731E-22
    -0.5398E-03,      0.2630E-22
    -0.4081E-03,      0.1019E-22
    -0.2840E-03,      0.3861E-23
    -0.1563E-03,      0.1294E-23
     0.0000E+00,      0.0000E+00
    -0.2064E+00,      0.1000E+01
    -0.2053E+00,      0.9103E+00
    -0.2031E+00,      0.8217E+00
    -0.1999E+00,      0.7353E+00
    -0.1960E+00,      0.6522E+00
    -0.1916E+00,      0.5732E+00
    -0.1870E+00,      0.4991E+00
    -0.1821E+00,      0.4305E+00
    -0.1771E+00,      0.3678E+00
    -0.1720E+00,      0.3111E+00
    -0.1669E+00,      0.2605E+00
    -0.1618E+00,      0.2160E+00
    -0.1568E+00,      0.1773E+00
    -0.1518E+00,      0.1440E+00
    -0.1469E+00,      0.1158E+00
    -0.1420E+00,      0.9216E-01
    -0.1373E+00,      0.7257E-01
    -0.1326E+00,      0.5655E-01
    -0.1281E+00,      0.4361E-01
    -0.1237E+00,      0.3327E-01
    -0.1194E+00,      0.2512E-01
    -0.1152E+00,      0.1877E-01
    -0.1112E+00,      0.1387E-01
    -0.1072E+00,      0.1014E-01
    -0.1034E+00,      0.7342E-02
    -0.9974E-01,      0.5257E-02
    -0.9617E-01,      0.3725E-02
    -0.9271E-01,      0.2612E-02
    -0.8936E-01,      0.1812E-02
    -0.8611E-01,      0.1244E-02
    -0.8296E-01,      0.8454E-03
    -0.7990E-01,      0.5685E-03
    -0.7694E-01,      0.3783E-03
    -0.7407E-01,      0.2492E-03
    -0.7129E-01,      0.1625E-03
    -0.6859E-01,      0.1048E-03
    -0.6598E-01,      0.6697E-04
    -0.6344E-01,      0.4235E-04
    -0.6098E-01,      0.2651E-04
    -0.5859E-01,      0.1643E-04
    -0.5627E-01,      0.1008E-04
    -0.5402E-01,      0.6128E-05
    -0.5184E-01,      0.3687E-05
    -0.4972E-01,      0.2197E-05
    -0.4767E-01,      0.1296E-05
    -0.4567E-01,      0.7577E-06
    -0.4374E-01,      0.4386E-06
    -0.4187E-01,      0.2515E-06
    -0.4005E-01,      0.1429E-06
    -0.3829E-01,      0.8040E-07
    -0.3658E-01,      0.4482E-07
    -0.3492E-01,      0.2476E-07
    -0.3331E-01,      0.1355E-07
    -0.3176E-01,      0.7351E-08
    -0.3025E-01,      0.3951E-08
    -0.2879E-01,      0.2105E-08
    -0.2738E-01,      0.1111E-08
    -0.2601E-01,      0.5816E-09
    -0.2468E-01,      0.3017E-09
    -0.2340E-01,      0.1552E-09
    -0.2217E-01,      0.7912E-10
    -0.2097E-01,      0.3999E-10
    -0.1982E-01,      0.2005E-10
    -0.1870E-01,      0.9964E-11
    -0.1762E-01,      0.4911E-11
    -0.1659E-01,      0.2401E-11
    -0.1559E-01,      0.1164E-11
    -0.1463E-01,      0.5596E-12
    -0.1370E-01,      0.2669E-12
    -0.1281E-01,      0.1263E-12
    -0.1195E-01,      0.5928E-13
    -0.1113E-01,      0.2761E-13
    -0.1035E-01,      0.1276E-13
    -0.9593E-02,      0.5848E-14
    -0.8872E-02,      0.2660E-14
    -0.8184E-02,      0.1201E-14
    -0.7528E-02,      0.5381E-15
    -0.6903E-02,      0.2393E-15
    -0.6309E-02,      0.1056E-15
    -0.5745E-02,      0.4626E-16
    -0.5212E-02,      0.2012E-16
    -0.4708E-02,      0.8685E-17
    -0.4233E-02,      0.3722E-17
    -0.3788E-02,      0.1584E-17
    -0.3371E-02,      0.6691E-18
    -0.2982E-02,      0.2807E-18
    -0.2620E-02,      0.1169E-18
    -0.2287E-02,      0.4837E-19
    -0.1979E-02,      0.1987E-19
    -0.1698E-02,      0.8108E-20
    -0.1443E-02,      0.3286E-20
    -0.1213E-02,      0.1323E-20
    -0.1007E-02,      0.5288E-21
    -0.8232E-03,      0.2100E-21
    -0.6611E-03,      0.8286E-22
    -0.5183E-03,      0.3247E-22
    -0.3924E-03,      0.1261E-22
    -0.2804E-03,      0.4792E-23
    -0.1802E-03,      0.1609E-23
    -0.9747E-04,      0.0000E+00
    -0.2033E+00,      0.1000E+01
    -0.2022E+00,      0.9105E+00
    -0.1999E+00,      0.8222E+00
    -0.1968E+00,      0.7360E+00
    -0.1931E+00,      0.6531E+00
    -0.1889E+00,      0.5743E+00
    -0.1844E+00,      0.5003E+00
    -0.1797E+00,      0.4318E+00
    -0.1750E+00,      0.3691E+00
    -0.1701E+00,      0.3124E+00
    -0.1652E+00,      0.2619E+00
    -0.1603E+00,      0.2173E+00
    -0.1554E+00,      0.1785E+00
    -0.1506E+00,      0.1452E+00
    -0.1458E+00,      0.1168E+00
    -0.1411E+00,      0.9306E-01
    -0.1365E+00,      0.7336E-01
    -0.1320E+00,      0.5723E-01
    -0.1275E+00,      0.4418E-01
    -0.1232E+00,      0.3375E-01
    -0.1190E+00,      0.2552E-01
    -0.1149E+00,      0.1909E-01
    -0.1109E+00,      0.1413E-01
    -0.1070E+00,      0.1035E-01
    -0.1032E+00,      0.7500E-02
    -0.9955E-01,      0.5379E-02
    -0.9600E-01,      0.3817E-02
    -0.9256E-01,      0.2681E-02
    -0.8922E-01,      0.1863E-02
    -0.8598E-01,      0.1281E-02
    -0.8284E-01,      0.8721E-03
    -0.7980E-01,      0.5874E-03
    -0.7685E-01,      0.3916E-03
    -0.7399E-01,      0.2584E-03
    -0.7121E-01,      0.1688E-03
    -0.6851E-01,      0.1091E-03
    -0.6590E-01,      0.6985E-04
    -0.6337E-01,      0.4426E-04
    -0.6091E-01,      0.2776E-04
    -0.5852E-01,      0.1724E-04
    -0.5620E-01,      0.1060E-04
    -0.5395E-01,      0.6455E-05
    -0.5177E-01,      0.3892E-05
    -0.4966E-01,      0.2324E-05
    -0.4760E-01,      0.1374E-05
    -0.4561E-01,      0.8049E-06
    -0.4368E-01,      0.4669E-06
    -0.4181E-01,      0.2683E-06
    -0.3999E-01,      0.1527E-06
    -0.3823E-01,      0.8614E-07
    -0.3652E-01,      0.4813E-07
    -0.3486E-01,      0.2664E-07
    -0.3325E-01,      0.1461E-07
    -0.3170E-01,      0.7944E-08
    -0.3019E-01,      0.4279E-08
    -0.2873E-01,      0.2285E-08
    -0.2732E-01,      0.1209E-08
    -0.2595E-01,      0.6341E-09
    -0.2463E-01,      0.3297E-09
    -0.2335E-01,      0.1699E-09
    -0.2211E-01,      0.8683E-10
    -0.2091E-01,      0.4399E-10
    -0.1976E-01,      0.2210E-10
    -0.1864E-01,      0.1101E-10
    -0.1757E-01,      0.5438E-11
    -0.1653E-01,      0.2664E-11
    -0.1553E-01,      0.1294E-11
    -0.1457E-01,      0.6238E-12
    -0.1365E-01,      0.2982E-12
    -0.1276E-01,      0.1414E-12
    -0.1190E-01,      0.6651E-13
    -0.1108E-01,      0.3104E-13
    -0.1029E-01,      0.1437E-13
    -0.9541E-02,      0.6604E-14
    -0.8821E-02,      0.3011E-14
    -0.8133E-02,      0.1362E-14
    -0.7477E-02,      0.6116E-15
    -0.6852E-02,      0.2725E-15
    -0.6258E-02,      0.1205E-15
    -0.5695E-02,      0.5292E-16
    -0.5162E-02,      0.2306E-16
    -0.4658E-02,      0.9976E-17
    -0.4184E-02,      0.4285E-17
    -0.3739E-02,      0.1827E-17
    -0.3322E-02,      0.7734E-18
    -0.2933E-02,      0.3251E-18
    -0.2572E-02,      0.1357E-18
    -0.2238E-02,      0.5625E-19
    -0.1931E-02,      0.2316E-19
    -0.1650E-02,      0.9467E-20
    -0.1395E-02,      0.3844E-20
    -0.1165E-02,      0.1550E-20
    -0.9596E-03,      0.6211E-21
    -0.7773E-03,      0.2472E-21
    -0.6173E-03,      0.9771E-22
    -0.4782E-03,      0.3836E-22
    -0.3587E-03,      0.1493E-22
    -0.2580E-03,      0.5683E-23
    -0.1772E-03,      0.1911E-23
    -0.1220E-03,      0.0000E+00
    -0.1993E+00,      0.1000E+01
    -0.1982E+00,      0.9107E+00
    -0.1960E+00,      0.8226E+00
    -0.1930E+00,      0.7367E+00
    -0.1894E+00,      0.6539E+00
    -0.1855E+00,      0.5753E+00
    -0.1812E+00,      0.5014E+00
    -0.1768E+00,      0.4330E+00
    -0.1723E+00,      0.3703E+00
    -0.1677E+00,      0.3137E+00
    -0.1630E+00,      0.2631E+00
    -0.1584E+00,      0.2185E+00
    -0.1537E+00,      0.1796E+00
    -0.1491E+00,      0.1462E+00
    -0.1445E+00,      0.1177E+00
    -0.1400E+00,      0.9387E-01
    -0.1355E+00,      0.7407E-01
    -0.1311E+00,      0.5785E-01
    -0.1268E+00,      0.4471E-01
    -0.1225E+00,      0.3419E-01
    -0.1184E+00,      0.2588E-01
    -0.1144E+00,      0.1938E-01
    -0.1104E+00,      0.1436E-01
    -0.1066E+00,      0.1053E-01
    -0.1029E+00,      0.7644E-02
    -0.9928E-01,      0.5489E-02
    -0.9576E-01,      0.3901E-02
    -0.9235E-01,      0.2743E-02
    -0.8903E-01,      0.1909E-02
    -0.8581E-01,      0.1315E-02
    -0.8269E-01,      0.8964E-03
    -0.7966E-01,      0.6048E-03
    -0.7672E-01,      0.4038E-03
    -0.7386E-01,      0.2669E-03
    -0.7109E-01,      0.1746E-03
    -0.6841E-01,      0.1131E-03
    -0.6580E-01,      0.7249E-04
    -0.6327E-01,      0.4601E-04
    -0.6081E-01,      0.2891E-04
    -0.5842E-01,      0.1798E-04
    -0.5611E-01,      0.1108E-04
    -0.5386E-01,      0.6756E-05
    -0.5168E-01,      0.4081E-05
    -0.4957E-01,      0.2441E-05
    -0.4752E-01,      0.1446E-05
    -0.4553E-01,      0.8484E-06
    -0.4360E-01,      0.4930E-06
    -0.4172E-01,      0.2838E-06
    -0.3990E-01,      0.1619E-06
    -0.3814E-01,      0.9144E-07
    -0.3643E-01,      0.5118E-07
    -0.3478E-01,      0.2838E-07
    -0.3317E-01,      0.1560E-07
    -0.3162E-01,      0.8494E-08
    -0.3011E-01,      0.4584E-08
    -0.2865E-01,      0.2452E-08
    -0.2724E-01,      0.1300E-08
    -0.2587E-01,      0.6829E-09
    -0.2455E-01,      0.3557E-09
    -0.2327E-01,      0.1837E-09
    -0.2203E-01,      0.9401E-10
    -0.2084E-01,      0.4772E-10
    -0.1968E-01,      0.2401E-10
    -0.1857E-01,      0.1198E-10
    -0.1749E-01,      0.5929E-11
    -0.1646E-01,      0.2910E-11
    -0.1546E-01,      0.1416E-11
    -0.1450E-01,      0.6837E-12
    -0.1357E-01,      0.3274E-12
    -0.1268E-01,      0.1555E-12
    -0.1183E-01,      0.7328E-13
    -0.1101E-01,      0.3426E-13
    -0.1022E-01,      0.1589E-13
    -0.9468E-02,      0.7312E-14
    -0.8748E-02,      0.3339E-14
    -0.8061E-02,      0.1513E-14
    -0.7405E-02,      0.6806E-15
    -0.6781E-02,      0.3038E-15
    -0.6188E-02,      0.1346E-15
    -0.5625E-02,      0.5917E-16
    -0.5092E-02,      0.2583E-16
    -0.4588E-02,      0.1119E-16
    -0.4114E-02,      0.4814E-17
    -0.3669E-02,      0.2056E-17
    -0.3252E-02,      0.8716E-18
    -0.2864E-02,      0.3670E-18
    -0.2503E-02,      0.1534E-18
    -0.2169E-02,      0.6368E-19
    -0.1862E-02,      0.2626E-19
    -0.1581E-02,      0.1075E-19
    -0.1327E-02,      0.4371E-20
    -0.1097E-02,      0.1766E-20
    -0.8923E-03,      0.7084E-21
    -0.7113E-03,      0.2823E-21
    -0.5533E-03,      0.1118E-21
    -0.4176E-03,      0.4394E-22
    -0.3036E-03,      0.1712E-22
    -0.2112E-03,      0.6526E-23
    -0.1418E-03,      0.2197E-23
    -0.9857E-04,      0.0000E+00
    -0.1950E+00,      0.1000E+01
    -0.1938E+00,      0.9109E+00
    -0.1917E+00,      0.8230E+00
    -0.1888E+00,      0.7373E+00
    -0.1854E+00,      0.6547E+00
    -0.1817E+00,      0.5762E+00
    -0.1777E+00,      0.5024E+00
    -0.1735E+00,      0.4340E+00
    -0.1693E+00,      0.3714E+00
    -0.1649E+00,      0.3148E+00
    -0.1605E+00,      0.2642E+00
    -0.1561E+00,      0.2195E+00
    -0.1517E+00,      0.1806E+00
    -0.1473E+00,      0.1471E+00
    -0.1430E+00,      0.1186E+00
    -0.1386E+00,      0.9461E-01
    -0.1343E+00,      0.7472E-01
    -0.1301E+00,      0.5840E-01
    -0.1259E+00,      0.4518E-01
    -0.1218E+00,      0.3458E-01
    -0.1177E+00,      0.2620E-01
    -0.1138E+00,      0.1964E-01
    -0.1099E+00,      0.1457E-01
    -0.1062E+00,      0.1070E-01
    -0.1025E+00,      0.7774E-02
    -0.9894E-01,      0.5589E-02
    -0.9546E-01,      0.3977E-02
    -0.9208E-01,      0.2800E-02
    -0.8880E-01,      0.1951E-02
    -0.8560E-01,      0.1346E-02
    -0.8250E-01,      0.9185E-03
    -0.7948E-01,      0.6205E-03
    -0.7655E-01,      0.4149E-03
    -0.7371E-01,      0.2746E-03
    -0.7095E-01,      0.1799E-03
    -0.6827E-01,      0.1167E-03
    -0.6567E-01,      0.7489E-04
    -0.6314E-01,      0.4760E-04
    -0.6069E-01,      0.2995E-04
    -0.5830E-01,      0.1866E-04
    -0.5599E-01,      0.1151E-04
    -0.5375E-01,      0.7031E-05
    -0.5157E-01,      0.4253E-05
    -0.4946E-01,      0.2548E-05
    -0.4741E-01,      0.1511E-05
    -0.4542E-01,      0.8881E-06
    -0.4349E-01,      0.5169E-06
    -0.4161E-01,      0.2980E-06
    -0.3980E-01,      0.1702E-06
    -0.3803E-01,      0.9629E-07
    -0.3633E-01,      0.5398E-07
    -0.3467E-01,      0.2998E-07
    -0.3307E-01,      0.1650E-07
    -0.3151E-01,      0.8999E-08
    -0.3000E-01,      0.4863E-08
    -0.2855E-01,      0.2605E-08
    -0.2713E-01,      0.1383E-08
    -0.2577E-01,      0.7278E-09
    -0.2444E-01,      0.3796E-09
    -0.2317E-01,      0.1963E-09
    -0.2193E-01,      0.1006E-09
    -0.2073E-01,      0.5115E-10
    -0.1958E-01,      0.2578E-10
    -0.1847E-01,      0.1288E-10
    -0.1739E-01,      0.6383E-11
    -0.1636E-01,      0.3137E-11
    -0.1536E-01,      0.1529E-11
    -0.1440E-01,      0.7391E-12
    -0.1347E-01,      0.3544E-12
    -0.1258E-01,      0.1686E-12
    -0.1173E-01,      0.7954E-13
    -0.1091E-01,      0.3724E-13
    -0.1013E-01,      0.1729E-13
    -0.9374E-02,      0.7970E-14
    -0.8655E-02,      0.3644E-14
    -0.7968E-02,      0.1654E-14
    -0.7313E-02,      0.7447E-15
    -0.6689E-02,      0.3328E-15
    -0.6096E-02,      0.1476E-15
    -0.5533E-02,      0.6499E-16
    -0.5001E-02,      0.2840E-16
    -0.4498E-02,      0.1232E-16
    -0.4024E-02,      0.5307E-17
    -0.3579E-02,      0.2269E-17
    -0.3163E-02,      0.9632E-18
    -0.2774E-02,      0.4060E-18
    -0.2413E-02,      0.1699E-18
    -0.2080E-02,      0.7062E-19
    -0.1773E-02,      0.2915E-19
    -0.1493E-02,      0.1195E-19
    -0.1238E-02,      0.4864E-20
    -0.1009E-02,      0.1967E-20
    -0.8048E-03,      0.7900E-21
    -0.6249E-03,      0.3152E-21
    -0.4686E-03,      0.1249E-21
    -0.3356E-03,      0.4916E-22
    -0.2256E-03,      0.1918E-22
    -0.1387E-03,      0.7317E-23
    -0.7572E-04,      0.2465E-23
    -0.3826E-04,      0.0000E+00
    -0.1904E+00,      0.1000E+01
    -0.1892E+00,      0.9111E+00
    -0.1872E+00,      0.8234E+00
    -0.1844E+00,      0.7378E+00
    -0.1812E+00,      0.6554E+00
    -0.1777E+00,      0.5770E+00
    -0.1739E+00,      0.5033E+00
    -0.1701E+00,      0.4350E+00
    -0.1661E+00,      0.3724E+00
    -0.1620E+00,      0.3158E+00
    -0.1579E+00,      0.2651E+00
    -0.1538E+00,      0.2204E+00
    -0.1496E+00,      0.1815E+00
    -0.1454E+00,      0.1479E+00
    -0.1413E+00,      0.1193E+00
    -0.1371E+00,      0.9526E-01
    -0.1330E+00,      0.7529E-01
    -0.1289E+00,      0.5890E-01
    -0.1249E+00,      0.4560E-01
    -0.1209E+00,      0.3494E-01
    -0.1170E+00,      0.2649E-01
    -0.1131E+00,      0.1988E-01
    -0.1094E+00,      0.1476E-01
    -0.1057E+00,      0.1085E-01
    -0.1021E+00,      0.7890E-02
    -0.9855E-01,      0.5679E-02
    -0.9512E-01,      0.4045E-02
    -0.9177E-01,      0.2851E-02
    -0.8852E-01,      0.1989E-02
    -0.8535E-01,      0.1373E-02
    -0.8227E-01,      0.9383E-03
    -0.7927E-01,      0.6346E-03
    -0.7636E-01,      0.4248E-03
    -0.7352E-01,      0.2815E-03
    -0.7077E-01,      0.1846E-03
    -0.6810E-01,      0.1199E-03
    -0.6551E-01,      0.7705E-04
    -0.6298E-01,      0.4903E-04
    -0.6054E-01,      0.3089E-04
    -0.5816E-01,      0.1927E-04
    -0.5585E-01,      0.1190E-04
    -0.5361E-01,      0.7279E-05
    -0.5143E-01,      0.4408E-05
    -0.4932E-01,      0.2644E-05
    -0.4727E-01,      0.1571E-05
    -0.4528E-01,      0.9240E-06
    -0.4335E-01,      0.5385E-06
    -0.4148E-01,      0.3108E-06
    -0.3966E-01,      0.1778E-06
    -0.3790E-01,      0.1007E-06
    -0.3620E-01,      0.5652E-07
    -0.3454E-01,      0.3143E-07
    -0.3294E-01,      0.1732E-07
    -0.3138E-01,      0.9458E-08
    -0.2988E-01,      0.5118E-08
    -0.2842E-01,      0.2745E-08
    -0.2701E-01,      0.1459E-08
    -0.2564E-01,      0.7686E-09
    -0.2432E-01,      0.4014E-09
    -0.2304E-01,      0.2078E-09
    -0.2180E-01,      0.1067E-09
    -0.2061E-01,      0.5428E-10
    -0.1946E-01,      0.2739E-10
    -0.1834E-01,      0.1370E-10
    -0.1727E-01,      0.6798E-11
    -0.1624E-01,      0.3345E-11
    -0.1524E-01,      0.1632E-11
    -0.1428E-01,      0.7899E-12
    -0.1335E-01,      0.3792E-12
    -0.1247E-01,      0.1806E-12
    -0.1161E-01,      0.8529E-13
    -0.1079E-01,      0.3997E-13
    -0.1001E-01,      0.1858E-13
    -0.9258E-02,      0.8573E-14
    -0.8539E-02,      0.3925E-14
    -0.7853E-02,      0.1783E-14
    -0.7199E-02,      0.8036E-15
    -0.6575E-02,      0.3595E-15
    -0.5983E-02,      0.1596E-15
    -0.5421E-02,      0.7035E-16
    -0.4889E-02,      0.3078E-16
    -0.4387E-02,      0.1336E-16
    -0.3913E-02,      0.5761E-17
    -0.3469E-02,      0.2466E-17
    -0.3052E-02,      0.1048E-17
    -0.2664E-02,      0.4420E-18
    -0.2304E-02,      0.1852E-18
    -0.1970E-02,      0.7704E-19
    -0.1664E-02,      0.3183E-19
    -0.1383E-02,      0.1306E-19
    -0.1129E-02,      0.5320E-20
    -0.9004E-03,      0.2153E-20
    -0.6968E-03,      0.8656E-21
    -0.5178E-03,      0.3456E-21
    -0.3629E-03,      0.1371E-21
    -0.2319E-03,      0.5400E-22
    -0.1246E-03,      0.2108E-22
    -0.4111E-04,      0.8050E-23
     0.1820E-04,      0.2713E-23
