# vtk DataFile Version 2.0
field data: pressure, temperature
ASCII
DATASET STRUCTURED_POINT
DIMENSIONS          100         100
ORIGIN      0.4950E-02      0.4950E-02
SPACING      0.9901E-02      0.9901E-02
    -0.9657E+00,      0.1000E+01
    -0.9622E+00,      0.9909E+00
    -0.9422E+00,      0.9818E+00
    -0.9276E+00,      0.9727E+00
    -0.9009E+00,      0.9636E+00
    -0.8783E+00,      0.9544E+00
    -0.8526E+00,      0.9453E+00
    -0.8295E+00,      0.9361E+00
    -0.8082E+00,      0.9270E+00
    -0.7890E+00,      0.9178E+00
    -0.7715E+00,      0.9086E+00
    -0.7552E+00,      0.8994E+00
    -0.7399E+00,      0.8901E+00
    -0.7253E+00,      0.8808E+00
    -0.7112E+00,      0.8716E+00
    -0.6976E+00,      0.8623E+00
    -0.6843E+00,      0.8529E+00
    -0.6711E+00,      0.8436E+00
    -0.6582E+00,      0.8342E+00
    -0.6453E+00,      0.8248E+00
    -0.6324E+00,      0.8153E+00
    -0.6196E+00,      0.8059E+00
    -0.6068E+00,      0.7964E+00
    -0.5940E+00,      0.7868E+00
    -0.5813E+00,      0.7773E+00
    -0.5685E+00,      0.7677E+00
    -0.5559E+00,      0.7581E+00
    -0.5433E+00,      0.7485E+00
    -0.5309E+00,      0.7388E+00
    -0.5187E+00,      0.7291E+00
    -0.5067E+00,      0.7194E+00
    -0.4950E+00,      0.7096E+00
    -0.4836E+00,      0.6999E+00
    -0.4726E+00,      0.6901E+00
    -0.4619E+00,      0.6802E+00
    -0.4516E+00,      0.6703E+00
    -0.4418E+00,      0.6604E+00
    -0.4323E+00,      0.6505E+00
    -0.4233E+00,      0.6406E+00
    -0.4146E+00,      0.6306E+00
    -0.4064E+00,      0.6206E+00
    -0.3984E+00,      0.6105E+00
    -0.3907E+00,      0.6005E+00
    -0.3833E+00,      0.5904E+00
    -0.3761E+00,      0.5803E+00
    -0.3691E+00,      0.5701E+00
    -0.3622E+00,      0.5600E+00
    -0.3553E+00,      0.5498E+00
    -0.3486E+00,      0.5396E+00
    -0.3418E+00,      0.5293E+00
    -0.3351E+00,      0.5191E+00
    -0.3283E+00,      0.5088E+00
    -0.3215E+00,      0.4985E+00
    -0.3147E+00,      0.4882E+00
    -0.3077E+00,      0.4778E+00
    -0.3006E+00,      0.4675E+00
    -0.2935E+00,      0.4571E+00
    -0.2862E+00,      0.4467E+00
    -0.2788E+00,      0.4363E+00
    -0.2712E+00,      0.4258E+00
    -0.2635E+00,      0.4154E+00
    -0.2557E+00,      0.4049E+00
    -0.2477E+00,      0.3944E+00
    -0.2395E+00,      0.3839E+00
    -0.2312E+00,      0.3734E+00
    -0.2227E+00,      0.3629E+00
    -0.2140E+00,      0.3523E+00
    -0.2051E+00,      0.3418E+00
    -0.1960E+00,      0.3312E+00
    -0.1868E+00,      0.3206E+00
    -0.1773E+00,      0.3100E+00
    -0.1676E+00,      0.2994E+00
    -0.1578E+00,      0.2888E+00
    -0.1477E+00,      0.2782E+00
    -0.1375E+00,      0.2675E+00
    -0.1271E+00,      0.2569E+00
    -0.1166E+00,      0.2462E+00
    -0.1059E+00,      0.2356E+00
    -0.9510E-01,      0.2249E+00
    -0.8423E-01,      0.2142E+00
    -0.7331E-01,      0.2035E+00
    -0.6240E-01,      0.1928E+00
    -0.5155E-01,      0.1821E+00
    -0.4081E-01,      0.1714E+00
    -0.3025E-01,      0.1607E+00
    -0.1995E-01,      0.1500E+00
    -0.9995E-02,      0.1393E+00
    -0.4723E-03,      0.1286E+00
     0.8514E-02,      0.1179E+00
     0.1685E-01,      0.1072E+00
     0.2442E-01,      0.9647E-01
     0.3108E-01,      0.8575E-01
     0.3670E-01,      0.7503E-01
     0.4116E-01,      0.6431E-01
     0.4448E-01,      0.5360E-01
     0.4670E-01,      0.4288E-01
     0.4807E-01,      0.3216E-01
     0.4850E-01,      0.2144E-01
     0.4864E-01,      0.1072E-01
     0.4833E-01,      0.0000E+00
    -0.9525E+00,      0.1000E+01
    -0.9386E+00,      0.9909E+00
    -0.9315E+00,      0.9818E+00
    -0.9046E+00,      0.9727E+00
    -0.8850E+00,      0.9636E+00
    -0.8570E+00,      0.9544E+00
    -0.8328E+00,      0.9453E+00
    -0.8089E+00,      0.9361E+00
    -0.7877E+00,      0.9270E+00
    -0.7687E+00,      0.9178E+00
    -0.7514E+00,      0.9086E+00
    -0.7353E+00,      0.8994E+00
    -0.7201E+00,      0.8901E+00
    -0.7057E+00,      0.8808E+00
    -0.6918E+00,      0.8716E+00
    -0.6784E+00,      0.8623E+00
    -0.6652E+00,      0.8529E+00
    -0.6523E+00,      0.8436E+00
    -0.6395E+00,      0.8342E+00
    -0.6268E+00,      0.8248E+00
    -0.6141E+00,      0.8153E+00
    -0.6015E+00,      0.8059E+00
    -0.5888E+00,      0.7964E+00
    -0.5762E+00,      0.7868E+00
    -0.5636E+00,      0.7773E+00
    -0.5511E+00,      0.7677E+00
    -0.5386E+00,      0.7581E+00
    -0.5263E+00,      0.7485E+00
    -0.5140E+00,      0.7388E+00
    -0.5020E+00,      0.7291E+00
    -0.4902E+00,      0.7194E+00
    -0.4786E+00,      0.7096E+00
    -0.4674E+00,      0.6999E+00
    -0.4566E+00,      0.6901E+00
    -0.4461E+00,      0.6802E+00
    -0.4361E+00,      0.6703E+00
    -0.4264E+00,      0.6604E+00
    -0.4172E+00,      0.6505E+00
    -0.4083E+00,      0.6406E+00
    -0.3999E+00,      0.6306E+00
    -0.3918E+00,      0.6206E+00
    -0.3841E+00,      0.6105E+00
    -0.3766E+00,      0.6005E+00
    -0.3695E+00,      0.5904E+00
    -0.3625E+00,      0.5803E+00
    -0.3557E+00,      0.5701E+00
    -0.3490E+00,      0.5600E+00
    -0.3424E+00,      0.5498E+00
    -0.3358E+00,      0.5396E+00
    -0.3293E+00,      0.5293E+00
    -0.3228E+00,      0.5191E+00
    -0.3163E+00,      0.5088E+00
    -0.3097E+00,      0.4985E+00
    -0.3030E+00,      0.4882E+00
    -0.2963E+00,      0.4778E+00
    -0.2895E+00,      0.4675E+00
    -0.2825E+00,      0.4571E+00
    -0.2755E+00,      0.4467E+00
    -0.2683E+00,      0.4363E+00
    -0.2610E+00,      0.4258E+00
    -0.2535E+00,      0.4154E+00
    -0.2459E+00,      0.4049E+00
    -0.2381E+00,      0.3944E+00
    -0.2302E+00,      0.3839E+00
    -0.2221E+00,      0.3734E+00
    -0.2138E+00,      0.3629E+00
    -0.2054E+00,      0.3523E+00
    -0.1968E+00,      0.3418E+00
    -0.1879E+00,      0.3312E+00
    -0.1789E+00,      0.3206E+00
    -0.1697E+00,      0.3100E+00
    -0.1603E+00,      0.2994E+00
    -0.1508E+00,      0.2888E+00
    -0.1410E+00,      0.2782E+00
    -0.1310E+00,      0.2675E+00
    -0.1209E+00,      0.2569E+00
    -0.1107E+00,      0.2462E+00
    -0.1003E+00,      0.2356E+00
    -0.8980E-01,      0.2249E+00
    -0.7924E-01,      0.2142E+00
    -0.6865E-01,      0.2035E+00
    -0.5807E-01,      0.1928E+00
    -0.4756E-01,      0.1821E+00
    -0.3717E-01,      0.1714E+00
    -0.2697E-01,      0.1607E+00
    -0.1704E-01,      0.1500E+00
    -0.7467E-02,      0.1393E+00
     0.1665E-02,      0.1286E+00
     0.1025E-01,      0.1179E+00
     0.1818E-01,      0.1072E+00
     0.2533E-01,      0.9647E-01
     0.3158E-01,      0.8575E-01
     0.3678E-01,      0.7503E-01
     0.4081E-01,      0.6431E-01
     0.4365E-01,      0.5360E-01
     0.4552E-01,      0.4288E-01
     0.4639E-01,      0.3216E-01
     0.4668E-01,      0.2144E-01
     0.4612E-01,      0.1072E-01
     0.4572E-01,      0.0000E+00
    -0.9267E+00,      0.1000E+01
    -0.9259E+00,      0.9909E+00
    -0.9014E+00,      0.9818E+00
    -0.8851E+00,      0.9727E+00
    -0.8558E+00,      0.9636E+00
    -0.8321E+00,      0.9544E+00
    -0.8054E+00,      0.9453E+00
    -0.7815E+00,      0.9361E+00
    -0.7602E+00,      0.9270E+00
    -0.7413E+00,      0.9178E+00
    -0.7240E+00,      0.9086E+00
    -0.7080E+00,      0.8994E+00
    -0.6930E+00,      0.8901E+00
    -0.6788E+00,      0.8809E+00
    -0.6651E+00,      0.8716E+00
    -0.6518E+00,      0.8623E+00
    -0.6389E+00,      0.8529E+00
    -0.6261E+00,      0.8436E+00
    -0.6135E+00,      0.8342E+00
    -0.6010E+00,      0.8248E+00
    -0.5885E+00,      0.8153E+00
    -0.5761E+00,      0.8059E+00
    -0.5637E+00,      0.7964E+00
    -0.5513E+00,      0.7868E+00
    -0.5389E+00,      0.7773E+00
    -0.5266E+00,      0.7677E+00
    -0.5144E+00,      0.7581E+00
    -0.5022E+00,      0.7485E+00
    -0.4902E+00,      0.7388E+00
    -0.4784E+00,      0.7291E+00
    -0.4668E+00,      0.7194E+00
    -0.4556E+00,      0.7096E+00
    -0.4446E+00,      0.6999E+00
    -0.4340E+00,      0.6901E+00
    -0.4238E+00,      0.6802E+00
    -0.4140E+00,      0.6703E+00
    -0.4046E+00,      0.6604E+00
    -0.3957E+00,      0.6505E+00
    -0.3871E+00,      0.6406E+00
    -0.3789E+00,      0.6306E+00
    -0.3712E+00,      0.6206E+00
    -0.3637E+00,      0.6105E+00
    -0.3565E+00,      0.6005E+00
    -0.3496E+00,      0.5904E+00
    -0.3429E+00,      0.5803E+00
    -0.3364E+00,      0.5701E+00
    -0.3300E+00,      0.5600E+00
    -0.3237E+00,      0.5498E+00
    -0.3175E+00,      0.5396E+00
    -0.3112E+00,      0.5293E+00
    -0.3050E+00,      0.5191E+00
    -0.2988E+00,      0.5088E+00
    -0.2925E+00,      0.4985E+00
    -0.2861E+00,      0.4882E+00
    -0.2797E+00,      0.4778E+00
    -0.2731E+00,      0.4675E+00
    -0.2665E+00,      0.4571E+00
    -0.2597E+00,      0.4467E+00
    -0.2529E+00,      0.4363E+00
    -0.2458E+00,      0.4258E+00
    -0.2387E+00,      0.4154E+00
    -0.2314E+00,      0.4049E+00
    -0.2239E+00,      0.3944E+00
    -0.2163E+00,      0.3839E+00
    -0.2086E+00,      0.3734E+00
    -0.2006E+00,      0.3629E+00
    -0.1925E+00,      0.3523E+00
    -0.1842E+00,      0.3418E+00
    -0.1758E+00,      0.3312E+00
    -0.1671E+00,      0.3206E+00
    -0.1583E+00,      0.3100E+00
    -0.1492E+00,      0.2994E+00
    -0.1400E+00,      0.2888E+00
    -0.1306E+00,      0.2782E+00
    -0.1211E+00,      0.2675E+00
    -0.1114E+00,      0.2569E+00
    -0.1016E+00,      0.2462E+00
    -0.9162E-01,      0.2356E+00
    -0.8158E-01,      0.2249E+00
    -0.7149E-01,      0.2142E+00
    -0.6139E-01,      0.2035E+00
    -0.5131E-01,      0.1928E+00
    -0.4132E-01,      0.1821E+00
    -0.3148E-01,      0.1714E+00
    -0.2185E-01,      0.1607E+00
    -0.1251E-01,      0.1500E+00
    -0.3545E-02,      0.1393E+00
     0.4955E-02,      0.1286E+00
     0.1289E-01,      0.1179E+00
     0.2015E-01,      0.1072E+00
     0.2663E-01,      0.9647E-01
     0.3218E-01,      0.8575E-01
     0.3669E-01,      0.7503E-01
     0.4005E-01,      0.6431E-01
     0.4224E-01,      0.5360E-01
     0.4338E-01,      0.4288E-01
     0.4383E-01,      0.3216E-01
     0.4355E-01,      0.2144E-01
     0.4309E-01,      0.1072E-01
     0.4214E-01,      0.0000E+00
    -0.9031E+00,      0.1000E+01
    -0.8868E+00,      0.9909E+00
    -0.8737E+00,      0.9818E+00
    -0.8461E+00,      0.9727E+00
    -0.8237E+00,      0.9636E+00
    -0.7954E+00,      0.9544E+00
    -0.7689E+00,      0.9453E+00
    -0.7447E+00,      0.9362E+00
    -0.7233E+00,      0.9270E+00
    -0.7043E+00,      0.9178E+00
    -0.6872E+00,      0.9086E+00
    -0.6714E+00,      0.8994E+00
    -0.6566E+00,      0.8901E+00
    -0.6426E+00,      0.8809E+00
    -0.6291E+00,      0.8716E+00
    -0.6161E+00,      0.8623E+00
    -0.6034E+00,      0.8529E+00
    -0.5909E+00,      0.8436E+00
    -0.5786E+00,      0.8342E+00
    -0.5664E+00,      0.8248E+00
    -0.5542E+00,      0.8153E+00
    -0.5421E+00,      0.8059E+00
    -0.5300E+00,      0.7964E+00
    -0.5179E+00,      0.7869E+00
    -0.5058E+00,      0.7773E+00
    -0.4938E+00,      0.7677E+00
    -0.4818E+00,      0.7581E+00
    -0.4700E+00,      0.7485E+00
    -0.4583E+00,      0.7388E+00
    -0.4468E+00,      0.7291E+00
    -0.4356E+00,      0.7194E+00
    -0.4247E+00,      0.7097E+00
    -0.4140E+00,      0.6999E+00
    -0.4038E+00,      0.6901E+00
    -0.3939E+00,      0.6802E+00
    -0.3845E+00,      0.6703E+00
    -0.3755E+00,      0.6605E+00
    -0.3669E+00,      0.6505E+00
    -0.3587E+00,      0.6406E+00
    -0.3509E+00,      0.6306E+00
    -0.3435E+00,      0.6206E+00
    -0.3364E+00,      0.6105E+00
    -0.3296E+00,      0.6005E+00
    -0.3231E+00,      0.5904E+00
    -0.3168E+00,      0.5803E+00
    -0.3106E+00,      0.5701E+00
    -0.3046E+00,      0.5600E+00
    -0.2987E+00,      0.5498E+00
    -0.2928E+00,      0.5396E+00
    -0.2870E+00,      0.5293E+00
    -0.2811E+00,      0.5191E+00
    -0.2752E+00,      0.5088E+00
    -0.2693E+00,      0.4985E+00
    -0.2634E+00,      0.4882E+00
    -0.2573E+00,      0.4778E+00
    -0.2512E+00,      0.4675E+00
    -0.2449E+00,      0.4571E+00
    -0.2386E+00,      0.4467E+00
    -0.2321E+00,      0.4363E+00
    -0.2255E+00,      0.4258E+00
    -0.2187E+00,      0.4154E+00
    -0.2118E+00,      0.4049E+00
    -0.2048E+00,      0.3944E+00
    -0.1976E+00,      0.3839E+00
    -0.1903E+00,      0.3734E+00
    -0.1828E+00,      0.3629E+00
    -0.1751E+00,      0.3523E+00
    -0.1673E+00,      0.3418E+00
    -0.1593E+00,      0.3312E+00
    -0.1511E+00,      0.3206E+00
    -0.1427E+00,      0.3100E+00
    -0.1342E+00,      0.2994E+00
    -0.1255E+00,      0.2888E+00
    -0.1167E+00,      0.2782E+00
    -0.1077E+00,      0.2675E+00
    -0.9851E-01,      0.2569E+00
    -0.8924E-01,      0.2462E+00
    -0.7989E-01,      0.2356E+00
    -0.7046E-01,      0.2249E+00
    -0.6101E-01,      0.2142E+00
    -0.5157E-01,      0.2035E+00
    -0.4218E-01,      0.1928E+00
    -0.3291E-01,      0.1821E+00
    -0.2381E-01,      0.1714E+00
    -0.1496E-01,      0.1607E+00
    -0.6436E-02,      0.1500E+00
     0.1689E-02,      0.1393E+00
     0.9320E-02,      0.1286E+00
     0.1636E-01,      0.1179E+00
     0.2271E-01,      0.1072E+00
     0.2824E-01,      0.9647E-01
     0.3286E-01,      0.8575E-01
     0.3642E-01,      0.7503E-01
     0.3883E-01,      0.6432E-01
     0.4017E-01,      0.5360E-01
     0.4057E-01,      0.4288E-01
     0.4010E-01,      0.3216E-01
     0.3933E-01,      0.2144E-01
     0.3833E-01,      0.1072E-01
     0.3766E-01,      0.0000E+00
    -0.8667E+00,      0.1000E+01
    -0.8590E+00,      0.9909E+00
    -0.8366E+00,      0.9818E+00
    -0.8160E+00,      0.9727E+00
    -0.7874E+00,      0.9636E+00
    -0.7596E+00,      0.9544E+00
    -0.7324E+00,      0.9453E+00
    -0.7078E+00,      0.9362E+00
    -0.6863E+00,      0.9270E+00
    -0.6673E+00,      0.9178E+00
    -0.6502E+00,      0.9086E+00
    -0.6345E+00,      0.8994E+00
    -0.6198E+00,      0.8901E+00
    -0.6060E+00,      0.8809E+00
    -0.5928E+00,      0.8716E+00
    -0.5800E+00,      0.8623E+00
    -0.5675E+00,      0.8529E+00
    -0.5553E+00,      0.8436E+00
    -0.5432E+00,      0.8342E+00
    -0.5312E+00,      0.8248E+00
    -0.5193E+00,      0.8153E+00
    -0.5075E+00,      0.8059E+00
    -0.4956E+00,      0.7964E+00
    -0.4838E+00,      0.7869E+00
    -0.4720E+00,      0.7773E+00
    -0.4603E+00,      0.7677E+00
    -0.4486E+00,      0.7581E+00
    -0.4371E+00,      0.7485E+00
    -0.4257E+00,      0.7388E+00
    -0.4146E+00,      0.7291E+00
    -0.4036E+00,      0.7194E+00
    -0.3930E+00,      0.7097E+00
    -0.3827E+00,      0.6999E+00
    -0.3728E+00,      0.6901E+00
    -0.3633E+00,      0.6802E+00
    -0.3542E+00,      0.6704E+00
    -0.3455E+00,      0.6605E+00
    -0.3373E+00,      0.6505E+00
    -0.3294E+00,      0.6406E+00
    -0.3220E+00,      0.6306E+00
    -0.3150E+00,      0.6206E+00
    -0.3082E+00,      0.6106E+00
    -0.3018E+00,      0.6005E+00
    -0.2956E+00,      0.5904E+00
    -0.2897E+00,      0.5803E+00
    -0.2839E+00,      0.5701E+00
    -0.2782E+00,      0.5600E+00
    -0.2727E+00,      0.5498E+00
    -0.2672E+00,      0.5396E+00
    -0.2617E+00,      0.5294E+00
    -0.2562E+00,      0.5191E+00
    -0.2507E+00,      0.5088E+00
    -0.2452E+00,      0.4985E+00
    -0.2396E+00,      0.4882E+00
    -0.2339E+00,      0.4779E+00
    -0.2281E+00,      0.4675E+00
    -0.2223E+00,      0.4571E+00
    -0.2163E+00,      0.4467E+00
    -0.2102E+00,      0.4363E+00
    -0.2040E+00,      0.4259E+00
    -0.1977E+00,      0.4154E+00
    -0.1912E+00,      0.4049E+00
    -0.1846E+00,      0.3944E+00
    -0.1778E+00,      0.3839E+00
    -0.1709E+00,      0.3734E+00
    -0.1638E+00,      0.3629E+00
    -0.1566E+00,      0.3523E+00
    -0.1492E+00,      0.3418E+00
    -0.1417E+00,      0.3312E+00
    -0.1340E+00,      0.3206E+00
    -0.1261E+00,      0.3100E+00
    -0.1181E+00,      0.2994E+00
    -0.1099E+00,      0.2888E+00
    -0.1016E+00,      0.2782E+00
    -0.9311E-01,      0.2675E+00
    -0.8454E-01,      0.2569E+00
    -0.7587E-01,      0.2462E+00
    -0.6714E-01,      0.2356E+00
    -0.5836E-01,      0.2249E+00
    -0.4958E-01,      0.2142E+00
    -0.4085E-01,      0.2035E+00
    -0.3220E-01,      0.1928E+00
    -0.2371E-01,      0.1822E+00
    -0.1542E-01,      0.1715E+00
    -0.7422E-02,      0.1607E+00
     0.2222E-03,      0.1500E+00
     0.7426E-02,      0.1393E+00
     0.1410E-01,      0.1286E+00
     0.2016E-01,      0.1179E+00
     0.2549E-01,      0.1072E+00
     0.3001E-01,      0.9647E-01
     0.3358E-01,      0.8575E-01
     0.3611E-01,      0.7504E-01
     0.3750E-01,      0.6432E-01
     0.3783E-01,      0.5360E-01
     0.3742E-01,      0.4288E-01
     0.3639E-01,      0.3216E-01
     0.3483E-01,      0.2144E-01
     0.3347E-01,      0.1072E-01
     0.3245E-01,      0.0000E+00
    -0.8369E+00,      0.1000E+01
    -0.8231E+00,      0.9909E+00
    -0.8052E+00,      0.9818E+00
    -0.7784E+00,      0.9727E+00
    -0.7507E+00,      0.9636E+00
    -0.7221E+00,      0.9545E+00
    -0.6944E+00,      0.9453E+00
    -0.6694E+00,      0.9362E+00
    -0.6477E+00,      0.9270E+00
    -0.6287E+00,      0.9178E+00
    -0.6116E+00,      0.9086E+00
    -0.5960E+00,      0.8994E+00
    -0.5815E+00,      0.8901E+00
    -0.5679E+00,      0.8809E+00
    -0.5548E+00,      0.8716E+00
    -0.5422E+00,      0.8623E+00
    -0.5300E+00,      0.8529E+00
    -0.5180E+00,      0.8436E+00
    -0.5062E+00,      0.8342E+00
    -0.4945E+00,      0.8248E+00
    -0.4829E+00,      0.8153E+00
    -0.4713E+00,      0.8059E+00
    -0.4597E+00,      0.7964E+00
    -0.4482E+00,      0.7869E+00
    -0.4367E+00,      0.7773E+00
    -0.4253E+00,      0.7677E+00
    -0.4139E+00,      0.7581E+00
    -0.4027E+00,      0.7485E+00
    -0.3917E+00,      0.7388E+00
    -0.3808E+00,      0.7291E+00
    -0.3702E+00,      0.7194E+00
    -0.3599E+00,      0.7097E+00
    -0.3500E+00,      0.6999E+00
    -0.3404E+00,      0.6901E+00
    -0.3312E+00,      0.6802E+00
    -0.3225E+00,      0.6704E+00
    -0.3142E+00,      0.6605E+00
    -0.3063E+00,      0.6505E+00
    -0.2988E+00,      0.6406E+00
    -0.2917E+00,      0.6306E+00
    -0.2850E+00,      0.6206E+00
    -0.2787E+00,      0.6106E+00
    -0.2726E+00,      0.6005E+00
    -0.2668E+00,      0.5904E+00
    -0.2612E+00,      0.5803E+00
    -0.2558E+00,      0.5702E+00
    -0.2505E+00,      0.5600E+00
    -0.2453E+00,      0.5498E+00
    -0.2402E+00,      0.5396E+00
    -0.2351E+00,      0.5294E+00
    -0.2300E+00,      0.5191E+00
    -0.2249E+00,      0.5088E+00
    -0.2197E+00,      0.4985E+00
    -0.2145E+00,      0.4882E+00
    -0.2092E+00,      0.4779E+00
    -0.2039E+00,      0.4675E+00
    -0.1984E+00,      0.4571E+00
    -0.1928E+00,      0.4467E+00
    -0.1871E+00,      0.4363E+00
    -0.1813E+00,      0.4259E+00
    -0.1754E+00,      0.4154E+00
    -0.1693E+00,      0.4049E+00
    -0.1631E+00,      0.3944E+00
    -0.1568E+00,      0.3839E+00
    -0.1503E+00,      0.3734E+00
    -0.1437E+00,      0.3629E+00
    -0.1369E+00,      0.3523E+00
    -0.1300E+00,      0.3418E+00
    -0.1229E+00,      0.3312E+00
    -0.1157E+00,      0.3206E+00
    -0.1084E+00,      0.3100E+00
    -0.1009E+00,      0.2994E+00
    -0.9321E-01,      0.2888E+00
    -0.8545E-01,      0.2782E+00
    -0.7757E-01,      0.2675E+00
    -0.6961E-01,      0.2569E+00
    -0.6157E-01,      0.2462E+00
    -0.5350E-01,      0.2356E+00
    -0.4541E-01,      0.2249E+00
    -0.3736E-01,      0.2142E+00
    -0.2938E-01,      0.2035E+00
    -0.2153E-01,      0.1928E+00
    -0.1386E-01,      0.1822E+00
    -0.6453E-02,      0.1715E+00
     0.6374E-03,      0.1608E+00
     0.7330E-02,      0.1500E+00
     0.1355E-01,      0.1393E+00
     0.1920E-01,      0.1286E+00
     0.2420E-01,      0.1179E+00
     0.2845E-01,      0.1072E+00
     0.3186E-01,      0.9647E-01
     0.3434E-01,      0.8576E-01
     0.3576E-01,      0.7504E-01
     0.3608E-01,      0.6432E-01
     0.3537E-01,      0.5360E-01
     0.3398E-01,      0.4288E-01
     0.3221E-01,      0.3216E-01
     0.3024E-01,      0.2144E-01
     0.2840E-01,      0.1072E-01
