# vtk DataFile Version 2.0
field data: pressure, temperature
ASCII
DATASET STRUCTURED_POINT
DIMENSIONS          100         100
ORIGIN      0.4950E-03      0.4950E-03
SPACING      0.9901E-03      0.9901E-03
    -0.3699E-01,      0.1000E+01
    -0.3695E-01,      0.9849E+00
    -0.3687E-01,      0.9699E+00
    -0.3673E-01,      0.9548E+00
    -0.3655E-01,      0.9398E+00
    -0.3633E-01,      0.9247E+00
    -0.3607E-01,      0.9098E+00
    -0.3577E-01,      0.8948E+00
    -0.3544E-01,      0.8799E+00
    -0.3508E-01,      0.8650E+00
    -0.3470E-01,      0.8501E+00
    -0.3428E-01,      0.8353E+00
    -0.3384E-01,      0.8206E+00
    -0.3338E-01,      0.8059E+00
    -0.3290E-01,      0.7913E+00
    -0.3240E-01,      0.7768E+00
    -0.3189E-01,      0.7623E+00
    -0.3136E-01,      0.7480E+00
    -0.3081E-01,      0.7337E+00
    -0.3026E-01,      0.7194E+00
    -0.2969E-01,      0.7053E+00
    -0.2911E-01,      0.6913E+00
    -0.2852E-01,      0.6774E+00
    -0.2793E-01,      0.6636E+00
    -0.2732E-01,      0.6498E+00
    -0.2671E-01,      0.6362E+00
    -0.2610E-01,      0.6228E+00
    -0.2548E-01,      0.6094E+00
    -0.2485E-01,      0.5962E+00
    -0.2422E-01,      0.5830E+00
    -0.2359E-01,      0.5700E+00
    -0.2295E-01,      0.5572E+00
    -0.2232E-01,      0.5445E+00
    -0.2168E-01,      0.5319E+00
    -0.2104E-01,      0.5194E+00
    -0.2041E-01,      0.5071E+00
    -0.1978E-01,      0.4950E+00
    -0.1915E-01,      0.4829E+00
    -0.1853E-01,      0.4711E+00
    -0.1792E-01,      0.4593E+00
    -0.1732E-01,      0.4478E+00
    -0.1672E-01,      0.4363E+00
    -0.1614E-01,      0.4251E+00
    -0.1557E-01,      0.4139E+00
    -0.1501E-01,      0.4030E+00
    -0.1447E-01,      0.3922E+00
    -0.1394E-01,      0.3815E+00
    -0.1343E-01,      0.3710E+00
    -0.1293E-01,      0.3607E+00
    -0.1244E-01,      0.3505E+00
    -0.1197E-01,      0.3405E+00
    -0.1152E-01,      0.3306E+00
    -0.1108E-01,      0.3209E+00
    -0.1065E-01,      0.3113E+00
    -0.1024E-01,      0.3019E+00
    -0.9835E-02,      0.2926E+00
    -0.9447E-02,      0.2835E+00
    -0.9070E-02,      0.2746E+00
    -0.8704E-02,      0.2657E+00
    -0.8350E-02,      0.2571E+00
    -0.8006E-02,      0.2486E+00
    -0.7672E-02,      0.2402E+00
    -0.7347E-02,      0.2320E+00
    -0.7033E-02,      0.2239E+00
    -0.6727E-02,      0.2159E+00
    -0.6430E-02,      0.2081E+00
    -0.6141E-02,      0.2004E+00
    -0.5861E-02,      0.1929E+00
    -0.5588E-02,      0.1855E+00
    -0.5324E-02,      0.1782E+00
    -0.5068E-02,      0.1710E+00
    -0.4819E-02,      0.1640E+00
    -0.4578E-02,      0.1570E+00
    -0.4345E-02,      0.1502E+00
    -0.4119E-02,      0.1435E+00
    -0.3900E-02,      0.1369E+00
    -0.3689E-02,      0.1304E+00
    -0.3486E-02,      0.1240E+00
    -0.3290E-02,      0.1177E+00
    -0.3101E-02,      0.1114E+00
    -0.2921E-02,      0.1053E+00
    -0.2748E-02,      0.9927E-01
    -0.2583E-02,      0.9330E-01
    -0.2426E-02,      0.8742E-01
    -0.2277E-02,      0.8160E-01
    -0.2137E-02,      0.7585E-01
    -0.2004E-02,      0.7016E-01
    -0.1881E-02,      0.6454E-01
    -0.1766E-02,      0.5896E-01
    -0.1659E-02,      0.5344E-01
    -0.1562E-02,      0.4797E-01
    -0.1474E-02,      0.4253E-01
    -0.1395E-02,      0.3713E-01
    -0.1325E-02,      0.3177E-01
    -0.1264E-02,      0.2643E-01
    -0.1213E-02,      0.2112E-01
    -0.1172E-02,      0.1582E-01
    -0.1140E-02,      0.1054E-01
    -0.1118E-02,      0.5268E-02
    -0.1106E-02,      0.0000E+00
    -0.3695E-01,      0.1000E+01
    -0.3691E-01,      0.9849E+00
    -0.3682E-01,      0.9699E+00
    -0.3669E-01,      0.9548E+00
    -0.3650E-01,      0.9398E+00
    -0.3628E-01,      0.9248E+00
    -0.3602E-01,      0.9098E+00
    -0.3573E-01,      0.8948E+00
    -0.3540E-01,      0.8799E+00
    -0.3504E-01,      0.8650E+00
    -0.3465E-01,      0.8502E+00
    -0.3423E-01,      0.8354E+00
    -0.3379E-01,      0.8206E+00
    -0.3333E-01,      0.8060E+00
    -0.3285E-01,      0.7914E+00
    -0.3236E-01,      0.7768E+00
    -0.3184E-01,      0.7624E+00
    -0.3131E-01,      0.7480E+00
    -0.3077E-01,      0.7337E+00
    -0.3021E-01,      0.7195E+00
    -0.2964E-01,      0.7053E+00
    -0.2906E-01,      0.6913E+00
    -0.2848E-01,      0.6774E+00
    -0.2788E-01,      0.6636E+00
    -0.2728E-01,      0.6499E+00
    -0.2667E-01,      0.6363E+00
    -0.2605E-01,      0.6228E+00
    -0.2543E-01,      0.6094E+00
    -0.2481E-01,      0.5962E+00
    -0.2418E-01,      0.5831E+00
    -0.2355E-01,      0.5701E+00
    -0.2291E-01,      0.5572E+00
    -0.2228E-01,      0.5445E+00
    -0.2164E-01,      0.5319E+00
    -0.2100E-01,      0.5195E+00
    -0.2037E-01,      0.5072E+00
    -0.1974E-01,      0.4950E+00
    -0.1911E-01,      0.4830E+00
    -0.1849E-01,      0.4711E+00
    -0.1788E-01,      0.4594E+00
    -0.1728E-01,      0.4478E+00
    -0.1669E-01,      0.4364E+00
    -0.1610E-01,      0.4251E+00
    -0.1553E-01,      0.4140E+00
    -0.1498E-01,      0.4030E+00
    -0.1443E-01,      0.3922E+00
    -0.1391E-01,      0.3815E+00
    -0.1339E-01,      0.3710E+00
    -0.1289E-01,      0.3607E+00
    -0.1241E-01,      0.3505E+00
    -0.1194E-01,      0.3405E+00
    -0.1149E-01,      0.3306E+00
    -0.1105E-01,      0.3209E+00
    -0.1062E-01,      0.3113E+00
    -0.1021E-01,      0.3019E+00
    -0.9806E-02,      0.2927E+00
    -0.9418E-02,      0.2835E+00
    -0.9042E-02,      0.2746E+00
    -0.8677E-02,      0.2658E+00
    -0.8323E-02,      0.2571E+00
    -0.7980E-02,      0.2486E+00
    -0.7647E-02,      0.2402E+00
    -0.7323E-02,      0.2320E+00
    -0.7009E-02,      0.2239E+00
    -0.6704E-02,      0.2160E+00
    -0.6407E-02,      0.2082E+00
    -0.6119E-02,      0.2005E+00
    -0.5839E-02,      0.1929E+00
    -0.5568E-02,      0.1855E+00
    -0.5304E-02,      0.1782E+00
    -0.5048E-02,      0.1710E+00
    -0.4800E-02,      0.1640E+00
    -0.4559E-02,      0.1570E+00
    -0.4326E-02,      0.1502E+00
    -0.4101E-02,      0.1435E+00
    -0.3883E-02,      0.1369E+00
    -0.3672E-02,      0.1304E+00
    -0.3469E-02,      0.1240E+00
    -0.3274E-02,      0.1177E+00
    -0.3086E-02,      0.1115E+00
    -0.2905E-02,      0.1053E+00
    -0.2733E-02,      0.9929E-01
    -0.2568E-02,      0.9332E-01
    -0.2411E-02,      0.8743E-01
    -0.2263E-02,      0.8161E-01
    -0.2123E-02,      0.7586E-01
    -0.1991E-02,      0.7018E-01
    -0.1867E-02,      0.6455E-01
    -0.1752E-02,      0.5898E-01
    -0.1646E-02,      0.5345E-01
    -0.1549E-02,      0.4798E-01
    -0.1461E-02,      0.4254E-01
    -0.1382E-02,      0.3714E-01
    -0.1312E-02,      0.3178E-01
    -0.1252E-02,      0.2644E-01
    -0.1201E-02,      0.2112E-01
    -0.1160E-02,      0.1583E-01
    -0.1128E-02,      0.1054E-01
    -0.1106E-02,      0.5269E-02
    -0.1094E-02,      0.0000E+00
    -0.3685E-01,      0.1000E+01
    -0.3681E-01,      0.9849E+00
    -0.3672E-01,      0.9699E+00
    -0.3659E-01,      0.9548E+00
    -0.3640E-01,      0.9398E+00
    -0.3618E-01,      0.9248E+00
    -0.3592E-01,      0.9098E+00
    -0.3562E-01,      0.8948E+00
    -0.3530E-01,      0.8799E+00
    -0.3494E-01,      0.8650E+00
    -0.3455E-01,      0.8502E+00
    -0.3413E-01,      0.8354E+00
    -0.3370E-01,      0.8206E+00
    -0.3324E-01,      0.8060E+00
    -0.3276E-01,      0.7914E+00
    -0.3226E-01,      0.7768E+00
    -0.3174E-01,      0.7624E+00
    -0.3121E-01,      0.7480E+00
    -0.3067E-01,      0.7337E+00
    -0.3011E-01,      0.7195E+00
    -0.2955E-01,      0.7054E+00
    -0.2897E-01,      0.6913E+00
    -0.2838E-01,      0.6774E+00
    -0.2779E-01,      0.6636E+00
    -0.2719E-01,      0.6499E+00
    -0.2658E-01,      0.6363E+00
    -0.2597E-01,      0.6228E+00
    -0.2535E-01,      0.6095E+00
    -0.2472E-01,      0.5962E+00
    -0.2409E-01,      0.5831E+00
    -0.2346E-01,      0.5701E+00
    -0.2283E-01,      0.5573E+00
    -0.2219E-01,      0.5445E+00
    -0.2156E-01,      0.5319E+00
    -0.2093E-01,      0.5195E+00
    -0.2029E-01,      0.5072E+00
    -0.1966E-01,      0.4950E+00
    -0.1904E-01,      0.4830E+00
    -0.1842E-01,      0.4711E+00
    -0.1781E-01,      0.4594E+00
    -0.1721E-01,      0.4478E+00
    -0.1661E-01,      0.4364E+00
    -0.1603E-01,      0.4251E+00
    -0.1546E-01,      0.4140E+00
    -0.1491E-01,      0.4031E+00
    -0.1437E-01,      0.3922E+00
    -0.1384E-01,      0.3816E+00
    -0.1333E-01,      0.3711E+00
    -0.1283E-01,      0.3607E+00
    -0.1235E-01,      0.3506E+00
    -0.1188E-01,      0.3405E+00
    -0.1143E-01,      0.3307E+00
    -0.1099E-01,      0.3209E+00
    -0.1056E-01,      0.3114E+00
    -0.1015E-01,      0.3020E+00
    -0.9753E-02,      0.2927E+00
    -0.9366E-02,      0.2836E+00
    -0.8991E-02,      0.2746E+00
    -0.8628E-02,      0.2658E+00
    -0.8275E-02,      0.2572E+00
    -0.7933E-02,      0.2486E+00
    -0.7601E-02,      0.2403E+00
    -0.7279E-02,      0.2320E+00
    -0.6966E-02,      0.2240E+00
    -0.6662E-02,      0.2160E+00
    -0.6366E-02,      0.2082E+00
    -0.6079E-02,      0.2005E+00
    -0.5800E-02,      0.1930E+00
    -0.5530E-02,      0.1855E+00
    -0.5267E-02,      0.1782E+00
    -0.5012E-02,      0.1711E+00
    -0.4765E-02,      0.1640E+00
    -0.4525E-02,      0.1571E+00
    -0.4293E-02,      0.1503E+00
    -0.4068E-02,      0.1435E+00
    -0.3851E-02,      0.1369E+00
    -0.3641E-02,      0.1304E+00
    -0.3439E-02,      0.1240E+00
    -0.3244E-02,      0.1177E+00
    -0.3057E-02,      0.1115E+00
    -0.2877E-02,      0.1054E+00
    -0.2705E-02,      0.9931E-01
    -0.2541E-02,      0.9334E-01
    -0.2385E-02,      0.8745E-01
    -0.2237E-02,      0.8163E-01
    -0.2098E-02,      0.7588E-01
    -0.1966E-02,      0.7019E-01
    -0.1843E-02,      0.6456E-01
    -0.1729E-02,      0.5899E-01
    -0.1623E-02,      0.5346E-01
    -0.1526E-02,      0.4799E-01
    -0.1439E-02,      0.4255E-01
    -0.1360E-02,      0.3715E-01
    -0.1291E-02,      0.3178E-01
    -0.1231E-02,      0.2644E-01
    -0.1180E-02,      0.2113E-01
    -0.1139E-02,      0.1583E-01
    -0.1108E-02,      0.1054E-01
    -0.1086E-02,      0.5270E-02
    -0.1073E-02,      0.0000E+00
    -0.3670E-01,      0.1000E+01
    -0.3667E-01,      0.9849E+00
    -0.3658E-01,      0.9699E+00
    -0.3644E-01,      0.9548E+00
    -0.3626E-01,      0.9398E+00
    -0.3603E-01,      0.9248E+00
    -0.3577E-01,      0.9098E+00
    -0.3548E-01,      0.8948E+00
    -0.3515E-01,      0.8799E+00
    -0.3479E-01,      0.8650E+00
    -0.3440E-01,      0.8502E+00
    -0.3399E-01,      0.8354E+00
    -0.3355E-01,      0.8207E+00
    -0.3309E-01,      0.8060E+00
    -0.3261E-01,      0.7914E+00
    -0.3211E-01,      0.7769E+00
    -0.3160E-01,      0.7624E+00
    -0.3107E-01,      0.7480E+00
    -0.3053E-01,      0.7337E+00
    -0.2998E-01,      0.7195E+00
    -0.2941E-01,      0.7054E+00
    -0.2884E-01,      0.6914E+00
    -0.2825E-01,      0.6775E+00
    -0.2766E-01,      0.6636E+00
    -0.2706E-01,      0.6499E+00
    -0.2645E-01,      0.6363E+00
    -0.2584E-01,      0.6229E+00
    -0.2522E-01,      0.6095E+00
    -0.2460E-01,      0.5962E+00
    -0.2397E-01,      0.5831E+00
    -0.2334E-01,      0.5701E+00
    -0.2271E-01,      0.5573E+00
    -0.2208E-01,      0.5446E+00
    -0.2144E-01,      0.5320E+00
    -0.2081E-01,      0.5195E+00
    -0.2018E-01,      0.5072E+00
    -0.1955E-01,      0.4951E+00
    -0.1893E-01,      0.4830E+00
    -0.1831E-01,      0.4712E+00
    -0.1770E-01,      0.4594E+00
    -0.1710E-01,      0.4479E+00
    -0.1651E-01,      0.4364E+00
    -0.1593E-01,      0.4252E+00
    -0.1537E-01,      0.4141E+00
    -0.1481E-01,      0.4031E+00
    -0.1427E-01,      0.3923E+00
    -0.1375E-01,      0.3816E+00
    -0.1324E-01,      0.3711E+00
    -0.1274E-01,      0.3608E+00
    -0.1226E-01,      0.3506E+00
    -0.1179E-01,      0.3406E+00
    -0.1134E-01,      0.3307E+00
    -0.1091E-01,      0.3210E+00
    -0.1048E-01,      0.3114E+00
    -0.1007E-01,      0.3020E+00
    -0.9677E-02,      0.2927E+00
    -0.9293E-02,      0.2836E+00
    -0.8920E-02,      0.2747E+00
    -0.8558E-02,      0.2659E+00
    -0.8207E-02,      0.2572E+00
    -0.7867E-02,      0.2487E+00
    -0.7537E-02,      0.2403E+00
    -0.7216E-02,      0.2321E+00
    -0.6904E-02,      0.2240E+00
    -0.6602E-02,      0.2160E+00
    -0.6308E-02,      0.2082E+00
    -0.6022E-02,      0.2005E+00
    -0.5745E-02,      0.1930E+00
    -0.5476E-02,      0.1856E+00
    -0.5215E-02,      0.1783E+00
    -0.4961E-02,      0.1711E+00
    -0.4715E-02,      0.1640E+00
    -0.4477E-02,      0.1571E+00
    -0.4246E-02,      0.1503E+00
    -0.4022E-02,      0.1436E+00
    -0.3806E-02,      0.1370E+00
    -0.3597E-02,      0.1304E+00
    -0.3396E-02,      0.1240E+00
    -0.3202E-02,      0.1177E+00
    -0.3016E-02,      0.1115E+00
    -0.2838E-02,      0.1054E+00
    -0.2667E-02,      0.9933E-01
    -0.2504E-02,      0.9336E-01
    -0.2348E-02,      0.8747E-01
    -0.2201E-02,      0.8165E-01
    -0.2062E-02,      0.7590E-01
    -0.1931E-02,      0.7021E-01
    -0.1809E-02,      0.6458E-01
    -0.1695E-02,      0.5900E-01
    -0.1590E-02,      0.5348E-01
    -0.1494E-02,      0.4800E-01
    -0.1407E-02,      0.4256E-01
    -0.1329E-02,      0.3716E-01
    -0.1260E-02,      0.3179E-01
    -0.1200E-02,      0.2645E-01
    -0.1150E-02,      0.2113E-01
    -0.1109E-02,      0.1583E-01
    -0.1078E-02,      0.1055E-01
    -0.1056E-02,      0.5271E-02
    -0.1044E-02,      0.0000E+00
    -0.3651E-01,      0.1000E+01
    -0.3647E-01,      0.9849E+00
    -0.3638E-01,      0.9699E+00
    -0.3624E-01,      0.9548E+00
    -0.3606E-01,      0.9398E+00
    -0.3584E-01,      0.9248E+00
    -0.3558E-01,      0.9098E+00
    -0.3528E-01,      0.8948E+00
    -0.3495E-01,      0.8799E+00
    -0.3459E-01,      0.8650E+00
    -0.3421E-01,      0.8502E+00
    -0.3380E-01,      0.8354E+00
    -0.3336E-01,      0.8207E+00
    -0.3290E-01,      0.8060E+00
    -0.3242E-01,      0.7914E+00
    -0.3193E-01,      0.7769E+00
    -0.3142E-01,      0.7624E+00
    -0.3089E-01,      0.7480E+00
    -0.3035E-01,      0.7337E+00
    -0.2980E-01,      0.7195E+00
    -0.2923E-01,      0.7054E+00
    -0.2866E-01,      0.6914E+00
    -0.2808E-01,      0.6775E+00
    -0.2749E-01,      0.6637E+00
    -0.2689E-01,      0.6500E+00
    -0.2629E-01,      0.6364E+00
    -0.2568E-01,      0.6229E+00
    -0.2506E-01,      0.6095E+00
    -0.2444E-01,      0.5963E+00
    -0.2382E-01,      0.5832E+00
    -0.2319E-01,      0.5702E+00
    -0.2256E-01,      0.5573E+00
    -0.2193E-01,      0.5446E+00
    -0.2130E-01,      0.5320E+00
    -0.2067E-01,      0.5196E+00
    -0.2004E-01,      0.5073E+00
    -0.1941E-01,      0.4951E+00
    -0.1879E-01,      0.4831E+00
    -0.1818E-01,      0.4712E+00
    -0.1757E-01,      0.4595E+00
    -0.1697E-01,      0.4479E+00
    -0.1638E-01,      0.4365E+00
    -0.1581E-01,      0.4252E+00
    -0.1524E-01,      0.4141E+00
    -0.1469E-01,      0.4031E+00
    -0.1415E-01,      0.3923E+00
    -0.1363E-01,      0.3817E+00
    -0.1312E-01,      0.3712E+00
    -0.1263E-01,      0.3608E+00
    -0.1215E-01,      0.3506E+00
    -0.1169E-01,      0.3406E+00
    -0.1124E-01,      0.3307E+00
    -0.1080E-01,      0.3210E+00
    -0.1038E-01,      0.3114E+00
    -0.9976E-02,      0.3020E+00
    -0.9581E-02,      0.2928E+00
    -0.9199E-02,      0.2837E+00
    -0.8828E-02,      0.2747E+00
    -0.8469E-02,      0.2659E+00
    -0.8120E-02,      0.2572E+00
    -0.7782E-02,      0.2487E+00
    -0.7454E-02,      0.2403E+00
    -0.7135E-02,      0.2321E+00
    -0.6826E-02,      0.2240E+00
    -0.6525E-02,      0.2161E+00
    -0.6233E-02,      0.2083E+00
    -0.5950E-02,      0.2006E+00
    -0.5674E-02,      0.1930E+00
    -0.5407E-02,      0.1856E+00
    -0.5147E-02,      0.1783E+00
    -0.4895E-02,      0.1711E+00
    -0.4651E-02,      0.1641E+00
    -0.4414E-02,      0.1571E+00
    -0.4185E-02,      0.1503E+00
    -0.3963E-02,      0.1436E+00
    -0.3748E-02,      0.1370E+00
    -0.3541E-02,      0.1305E+00
    -0.3341E-02,      0.1241E+00
    -0.3149E-02,      0.1177E+00
    -0.2964E-02,      0.1115E+00
    -0.2787E-02,      0.1054E+00
    -0.2617E-02,      0.9935E-01
    -0.2455E-02,      0.9338E-01
    -0.2301E-02,      0.8748E-01
    -0.2155E-02,      0.8166E-01
    -0.2017E-02,      0.7591E-01
    -0.1887E-02,      0.7022E-01
    -0.1765E-02,      0.6459E-01
    -0.1653E-02,      0.5901E-01
    -0.1548E-02,      0.5349E-01
    -0.1453E-02,      0.4801E-01
    -0.1366E-02,      0.4257E-01
    -0.1289E-02,      0.3717E-01
    -0.1221E-02,      0.3180E-01
    -0.1162E-02,      0.2645E-01
    -0.1112E-02,      0.2114E-01
    -0.1071E-02,      0.1584E-01
    -0.1040E-02,      0.1055E-01
    -0.1019E-02,      0.5272E-02
    -0.1007E-02,      0.0000E+00
    -0.3628E-01,      0.1000E+01
    -0.3624E-01,      0.9849E+00
    -0.3615E-01,      0.9699E+00
    -0.3601E-01,      0.9548E+00
    -0.3583E-01,      0.9398E+00
    -0.3561E-01,      0.9248E+00
    -0.3534E-01,      0.9098E+00
    -0.3505E-01,      0.8948E+00
    -0.3472E-01,      0.8799E+00
    -0.3436E-01,      0.8650E+00
    -0.3398E-01,      0.8502E+00
    -0.3357E-01,      0.8354E+00
    -0.3313E-01,      0.8207E+00
    -0.3268E-01,      0.8060E+00
    -0.3220E-01,      0.7914E+00
    -0.3171E-01,      0.7769E+00
    -0.3120E-01,      0.7624E+00
    -0.3067E-01,      0.7481E+00
    -0.3013E-01,      0.7338E+00
    -0.2958E-01,      0.7196E+00
    -0.2902E-01,      0.7054E+00
    -0.2845E-01,      0.6914E+00
    -0.2787E-01,      0.6775E+00
    -0.2728E-01,      0.6637E+00
    -0.2669E-01,      0.6500E+00
    -0.2609E-01,      0.6364E+00
    -0.2548E-01,      0.6229E+00
    -0.2487E-01,      0.6095E+00
    -0.2425E-01,      0.5963E+00
    -0.2363E-01,      0.5832E+00
    -0.2300E-01,      0.5702E+00
    -0.2238E-01,      0.5574E+00
    -0.2175E-01,      0.5446E+00
    -0.2112E-01,      0.5320E+00
    -0.2049E-01,      0.5196E+00
    -0.1987E-01,      0.5073E+00
    -0.1924E-01,      0.4951E+00
    -0.1863E-01,      0.4831E+00
    -0.1801E-01,      0.4712E+00
    -0.1741E-01,      0.4595E+00
    -0.1681E-01,      0.4479E+00
    -0.1623E-01,      0.4365E+00
    -0.1565E-01,      0.4252E+00
    -0.1509E-01,      0.4141E+00
    -0.1454E-01,      0.4032E+00
    -0.1401E-01,      0.3924E+00
    -0.1349E-01,      0.3817E+00
    -0.1298E-01,      0.3712E+00
    -0.1249E-01,      0.3609E+00
    -0.1202E-01,      0.3507E+00
    -0.1156E-01,      0.3406E+00
    -0.1111E-01,      0.3308E+00
    -0.1068E-01,      0.3210E+00
    -0.1026E-01,      0.3115E+00
    -0.9858E-02,      0.3021E+00
    -0.9466E-02,      0.2928E+00
    -0.9086E-02,      0.2837E+00
    -0.8718E-02,      0.2747E+00
    -0.8362E-02,      0.2659E+00
    -0.8016E-02,      0.2573E+00
    -0.7680E-02,      0.2487E+00
    -0.7354E-02,      0.2404E+00
    -0.7038E-02,      0.2321E+00
    -0.6731E-02,      0.2241E+00
    -0.6433E-02,      0.2161E+00
    -0.6143E-02,      0.2083E+00
    -0.5862E-02,      0.2006E+00
    -0.5589E-02,      0.1931E+00
    -0.5323E-02,      0.1856E+00
    -0.5066E-02,      0.1783E+00
    -0.4816E-02,      0.1712E+00
    -0.4574E-02,      0.1641E+00
    -0.4339E-02,      0.1572E+00
    -0.4112E-02,      0.1503E+00
    -0.3891E-02,      0.1436E+00
    -0.3679E-02,      0.1370E+00
    -0.3473E-02,      0.1305E+00
    -0.3275E-02,      0.1241E+00
    -0.3084E-02,      0.1178E+00
    -0.2901E-02,      0.1115E+00
    -0.2725E-02,      0.1054E+00
    -0.2556E-02,      0.9937E-01
    -0.2396E-02,      0.9340E-01
    -0.2243E-02,      0.8750E-01
    -0.2098E-02,      0.8168E-01
    -0.1961E-02,      0.7592E-01
    -0.1833E-02,      0.7023E-01
    -0.1712E-02,      0.6460E-01
    -0.1601E-02,      0.5902E-01
    -0.1497E-02,      0.5350E-01
    -0.1403E-02,      0.4802E-01
    -0.1317E-02,      0.4258E-01
    -0.1240E-02,      0.3717E-01
    -0.1173E-02,      0.3180E-01
    -0.1114E-02,      0.2646E-01
    -0.1065E-02,      0.2114E-01
    -0.1025E-02,      0.1584E-01
    -0.9944E-03,      0.1055E-01
    -0.9731E-03,      0.5273E-02
